-8.819466034975531610e-02
-9.084909683686859250e-02
-8.697277167008930776e-02
-9.020658370859518937e-02
-8.764024889226940118e-02
-8.412602222002669994e-02
-8.160840269196996399e-02
-7.798352765597463265e-02
-7.389214367362378910e-02
-6.866105675131367603e-02
-6.632998407349112446e-02
-6.747865706679738451e-02
-7.091989149572902607e-02
-7.516728269761852044e-02
-7.225037480869662965e-02
-7.061527736954974210e-02
-6.962514365330332855e-02
-6.931882937637819098e-02
-7.070702886234322970e-02
-6.924788655363228740e-02
-7.198474039903778043e-02
-7.112438444889938871e-02
-6.601540191822316550e-02
-6.885824893016614934e-02
-6.796802292384869493e-02
-6.612090032567913278e-02
-6.741822562732240065e-02
-6.541959923601385618e-02
-6.296958085596036925e-02
-5.903061123922090370e-02
-5.779121485520934132e-02
-5.809451781875717841e-02
-5.696936361172863506e-02
-5.830127533527297568e-02
-5.621515959018952291e-02
-5.509476101115771268e-02
-5.508420209055692185e-02
-5.295780162252259476e-02
-5.362037280909962011e-02
-5.303476355611102394e-02
-5.400975263508636659e-02
-5.246003743784993789e-02
-4.634641230435483650e-02
-4.635752690193895020e-02
-4.569908153568185555e-02
-3.907364565730483963e-02
-2.287141645502133863e-02
-4.746272803782316044e-03
-6.579869113170426064e-04
1.051353167746665873e-02
3.269594655930458532e-02
4.332922393540844519e-02
4.117050212793771369e-02
3.326342710796006269e-02
2.776905565889943583e-02
-5.663286608428005908e-03
-6.192422136304529673e-02
-8.195084018537901471e-02
-7.317521397825625662e-02
-6.612409540744461356e-02
-6.670225730724059499e-02
-6.893652522140911176e-02
-6.743438273562120389e-02
-7.776992710521912766e-02
-1.069179902372430768e-01
-6.576413156216597000e-02
1.632786911863046142e-01
5.838657956604411670e-01
1.034304133972828943e+00
1.102801568321810421e+00
6.309965701414900208e-01
1.065903280159720135e-01
-9.769603234035988126e-02
-1.139031701335702640e-01
-1.076520059543038532e-01
-1.110906655239602414e-01
-1.131604092773887127e-01
-1.081586028781380826e-01
-1.045703473487798463e-01
-9.611609541262425283e-02
-8.852084848632479908e-02
-8.208895732644631849e-02
-7.425976126738972893e-02
-7.005856086246906034e-02
-6.220214395045586125e-02
-5.709406642507641738e-02
-5.291023772293515504e-02
-4.392341372751483453e-02
-3.804360253121798208e-02
-3.128773590256742065e-02
-2.416119816346922605e-02
-1.754979811175075288e-02
-6.319412538488511540e-03
5.151246459378647918e-03
1.986382408557402571e-02
3.509746954412231584e-02
5.198562385309344475e-02
7.264801365459888638e-02
9.202568798703056330e-02
1.167671631285460976e-01
1.426878074488378279e-01
1.640489884613619553e-01
1.828620309130261079e-01
1.953909178892543341e-01
2.005886062755519728e-01
1.887348168045277774e-01
1.573683364143721730e-01
1.095662138528606527e-01
5.049734144987969714e-02
-1.347268074812872033e-03
-4.098112084013492973e-02
-6.893170340500648363e-02
-8.401855498048295401e-02
-9.375674180370974220e-02
-9.689863535985353271e-02
-9.626190714293481054e-02
-9.362201352505013230e-02
-9.149683730318776409e-02
-8.932938061165200672e-02
-8.400243199612439371e-02
-8.441237105659959994e-02
-8.553968598760886000e-02
-8.194820395349594611e-02
-8.000211947332663831e-02
-7.680912113793476881e-02
-7.603201084060584591e-02
-7.655517591982008430e-02
-7.452591530550263521e-02
-7.398405433871629855e-02
-7.248484804714329377e-02
-7.318889759486822688e-02
-7.556614125155963757e-02
-7.693161280224736220e-02
-7.681666900074024529e-02
-7.214119037527376432e-02
-7.124360358732260978e-02
-7.080670100228125818e-02
-6.953017083185612790e-02
-6.908939446542355922e-02
-6.365459696692549185e-02
-6.340718310261517221e-02
-6.552058335494784225e-02
-6.440139505100632433e-02
-6.555070393398935991e-02
-6.297028018355114998e-02
-6.269515914593176698e-02
-6.356085100992371617e-02
-6.041237911054297971e-02
-5.997882160994311151e-02
-5.805933801784473464e-02
-5.746173245133558150e-02
-5.880651070840366146e-02
-5.707109040081995849e-02
-5.569357976664967430e-02
-5.155347080541953370e-02
-4.980433843639339719e-02
-5.095344918787106381e-02
-4.770404765728721713e-02
-4.691011616850156857e-02
-4.678899039410019250e-02
-4.358026514845279170e-02
-3.624089389344190698e-02
-2.194988878125254603e-02
-6.734676000379819644e-03
5.704495654720139614e-03
1.149401659998524304e-02
2.652453152093042776e-02
4.731564436326272938e-02
4.942569182038752951e-02
4.174994623933073884e-02
3.371147398260981171e-02
1.028854415234250162e-02
-4.117147789335522806e-02
-7.660695678711475221e-02
-6.788389961208216028e-02
-6.187285915202416636e-02
-6.388534047071380007e-02
-5.657718192868567419e-02
-5.504035547220962471e-02
-5.933312170148446335e-02
-8.409963432081087042e-02
-8.667233368543131311e-02
6.528347219459641748e-02
4.148160133518528081e-01
8.933184660375748098e-01
1.161611414214877014e+00
8.455107486435171626e-01
2.539434722178779413e-01
-6.972103572303078867e-02
-1.134846398841187765e-01
-9.498722744220372549e-02
-9.163399230761351544e-02
-9.545933160663447326e-02
-9.431977349180090120e-02
-8.624550976104289335e-02
-8.076909187223141329e-02
-7.547593613444994465e-02
-7.071644484510292150e-02
-6.815977066522081740e-02
-5.713611174778476104e-02
-5.129411710746746567e-02
-5.019573818595196579e-02
-4.225719842098604739e-02
-3.787028282056663364e-02
-3.135521466945268010e-02
-2.254780621331450158e-02
-1.458651538507139446e-02
-6.206388431101882673e-03
1.469506606477574738e-03
1.498028298700017358e-02
2.801362692714422231e-02
4.193655056701386941e-02
6.151712851274850069e-02
7.938640624131504397e-02
1.027639974809475554e-01
1.250384376786669027e-01
1.436010319254489576e-01
1.675864255472589992e-01
1.885704316988856544e-01
2.042672272191076999e-01
2.095362501260599475e-01
2.057543859851752588e-01
1.847284890732525664e-01
1.350939355824697652e-01
7.874845498871729799e-02
2.305772935112980482e-02
-2.462616735198770723e-02
-5.625896992155814819e-02
-7.990236868844774465e-02
-8.897121524787598990e-02
-9.159718428618403296e-02
-9.628811165766000546e-02
-9.667244685330568521e-02
-9.403303070234472760e-02
-8.883653841957911412e-02
-8.684978477446256284e-02
-8.454822408306637838e-02
-7.976432327165550173e-02
-8.048551772211441635e-02
-7.938581079249532046e-02
-7.705380967965691497e-02
-7.419931882914627963e-02
-7.132352429298254026e-02
-7.291791547498910342e-02
-7.098774497486666502e-02
-6.985515883961188055e-02
-7.103249192127594758e-02
-7.195982619767848920e-02
-7.315219550313277475e-02
-6.993447784917831977e-02
-7.108568394633307808e-02
-7.232524110950407092e-02
-7.056210069255636208e-02
-7.172926478827040819e-02
-6.860204274024592208e-02
-6.606434568719753153e-02
-6.524815107434299433e-02
-6.641073542825200182e-02
-6.983163903348482693e-02
-6.590572659655466459e-02
-6.265447068582731538e-02
-6.162550301298033717e-02
-6.047263275717779107e-02
-6.242335339650992992e-02
-6.062093711206152646e-02
-5.933086274351070943e-02
-5.545035306065683456e-02
-4.877214453930280025e-02
-5.111612901000563147e-02
-5.166002310311543916e-02
-4.961146078239998813e-02
-4.902038155253640728e-02
-4.460430681019068866e-02
-3.597206171233014588e-02
-1.852236339149821234e-02
-5.288589747037142005e-03
-1.444259035641055899e-04
1.618432040591726712e-02
3.419106489752709449e-02
3.974310827704913285e-02
3.325955279177776613e-02
2.918688015775778438e-02
1.855180409530205604e-02
-3.209565113015074717e-02
-7.616483979660487735e-02
-7.605241803128201528e-02
-6.703310082893271238e-02
-6.404373542822656973e-02
-6.558255984205647870e-02
-6.252691173321782425e-02
-5.954335179334063061e-02
-7.527441794029803013e-02
-9.522166112215263434e-02
-1.066129788695201197e-02
2.674467594127977743e-01
7.009347945872044239e-01
1.070651291154074647e+00
9.576719729672602544e-01
4.026691519688986864e-01
-1.393805825770260201e-02
-1.088096027798119564e-01
-9.998421032919768692e-02
-9.728322783822465625e-02
-1.056742449008890583e-01
-1.063252547178262231e-01
-9.628398015770642249e-02
-8.778035288289028071e-02
-8.167814684275631620e-02
-7.713752353292524511e-02
-6.988575434494574690e-02
-6.156656537773861487e-02
-5.557518220716522322e-02
-5.243047841857948616e-02
-4.906928967204654546e-02
-3.945300004068197364e-02
-3.238933740817771106e-02
-2.786681914077662400e-02
-1.995043624160164342e-02
-1.293526184673126148e-02
-2.380966312545892798e-03
8.647470372874862046e-03
1.892848895904514217e-02
3.219121652396218780e-02
4.661346209270074425e-02
6.885955170308975803e-02
9.028255396880209560e-02
1.108249682005552766e-01
1.371284889235357407e-01
1.593710447564306021e-01
1.825894954316856500e-01
2.036048366768804518e-01
2.129454670588845078e-01
2.098953178054011603e-01
1.859746078332434605e-01
1.435621305452145779e-01
8.773849104438902202e-02
3.085517510251034601e-02
-1.648569342313031469e-02
-5.243407382500023250e-02
-7.250785315586637247e-02
-8.716059135255872781e-02
-9.466666372768678395e-02
-9.330459914546070099e-02
-9.344941803335220232e-02
-8.910955965409883550e-02
-8.737889039612770081e-02
-8.940908698602859084e-02
-8.787928660710807305e-02
-8.822481858569562740e-02
-8.444267535901747723e-02
-8.044962478752966384e-02
-8.116527311791105204e-02
-8.036085132507700401e-02
-8.039649612152727221e-02
-7.658687582670675731e-02
-7.530828515497933751e-02
-7.743143489468666540e-02
-7.376708814972916806e-02
-7.357285774167696135e-02
-7.317133018363729258e-02
-7.153345006343288237e-02
-7.219098448520759603e-02
-7.034421886351029107e-02
-7.113086802172868817e-02
-6.849373068280539822e-02
-6.685218130036067741e-02
-6.888138636426414940e-02
-6.606987220574468689e-02
-6.542656524796970630e-02
-6.379568766462602458e-02
-6.205697108434526238e-02
-6.150134039413181208e-02
-5.741998222360117365e-02
-5.710806977929214212e-02
-5.601640742316874727e-02
-5.538699798027849064e-02
-5.440720444480985629e-02
-5.223670490001867256e-02
-5.314007894831215828e-02
-4.887975702400298994e-02
-4.654240889204680487e-02
-4.773440963401266030e-02
-4.686972292667218598e-02
-4.906088565446969918e-02
-4.495211561836071762e-02
-4.443859851534104344e-02
-4.872023481998158378e-02
-4.226109620106709847e-02
-3.228623868491214272e-02
-1.837288376204167933e-02
-3.621644502305498229e-03
4.710428050272535277e-03
1.815817040035769964e-02
3.818116260432676684e-02
5.159065421784086308e-02
5.053049960935462187e-02
4.367442384772018266e-02
3.754922294844798003e-02
6.640513983877220812e-03
-4.639971274588958194e-02
-7.135217013049886814e-02
-6.407655840945226944e-02
-5.576261227663623088e-02
-5.633600735624717804e-02
-5.599743966469994394e-02
-5.588666137013539870e-02
-6.645555756360520261e-02
-9.475625368140105920e-02
-7.444008932310217097e-02
1.210932984490069447e-01
5.148376150540000529e-01
9.818635361256428107e-01
1.138435808157192586e+00
7.299857317789826272e-01
1.754004556538333870e-01
-7.896846808086410707e-02
-1.078709500875103394e-01
-1.022556880355590669e-01
-1.075777700756184035e-01
-1.072029833427964318e-01
-1.020839408137512727e-01
-9.698747656121285698e-02
-9.066116984681940605e-02
-8.652691697410974658e-02
-7.686262516577409276e-02
-6.640956069614201152e-02
-6.138619824729187047e-02
-5.575608361483485459e-02
-5.242851900098183249e-02
-4.625360656915938201e-02
-3.884247134997786954e-02
-3.278431885047918687e-02
-2.611296237266563444e-02
-2.068412151420843947e-02
-1.155459306186241639e-02
-1.953403479576426138e-03
7.994786355567572167e-03
2.129015228938478319e-02
3.463926026491020299e-02
5.175224205503619473e-02
7.054957650310236805e-02
9.421059531851783131e-02
1.218077197506867715e-01
1.444146239228648598e-01
1.684297664901131530e-01
1.887425037513636161e-01
2.020217974051855825e-01
2.093799476466272069e-01
1.963623609622655031e-01
1.619869588937198623e-01
1.095735479175504318e-01
5.200325541925684969e-02
3.294856876085022757e-03
-3.919892114888337553e-02
-6.749115881629383362e-02
-8.386624061978714684e-02
-9.232420440975937226e-02
-9.266528383484118336e-02
-9.324580315289043853e-02
-8.913055992895071999e-02
-8.618340087082194956e-02
-8.469701611222585358e-02
-7.894813108032758264e-02
-7.752290888916081590e-02
-7.487722743109051504e-02
-7.143263901732313514e-02
-7.044983292564803434e-02
-7.021858295482817647e-02
-7.195349279881793625e-02
-6.717984471982184347e-02
-6.489171412704317077e-02
-7.056952739328511970e-02
-7.114136476110391460e-02
-6.982614200661352299e-02
-6.902823964979440396e-02
-7.138691687952890275e-02
-7.509574134473115392e-02
-7.277691449503172205e-02
-7.195123321588696441e-02
-7.244127892231522203e-02
-7.296343502690123828e-02
-7.150898422072114735e-02
-6.817317402278151584e-02
-7.016968224252954911e-02
-7.015558104810060147e-02
-6.952768587689979463e-02
-7.009915251106885181e-02
-6.522316094621222193e-02
-6.222064050545286773e-02
-6.068885299047097059e-02
-5.928601774482349790e-02
-5.892999418883727858e-02
-5.842066271688110130e-02
-5.876265420803359479e-02
-5.639212921191869010e-02
-5.593919029794575115e-02
-5.647478691859308952e-02
-5.273686493117133584e-02
-5.192911688586299146e-02
-5.011006231175096914e-02
-4.685910096402520764e-02
-4.515204016288287825e-02
-4.091822390294761608e-02
-3.379852563431031548e-02
-1.703734258511009972e-02
-1.147929785157413268e-03
3.250750677688556915e-03
1.798272102104390632e-02
3.629925103838865103e-02
4.237885972464228157e-02
3.924190347426192299e-02
3.516251007002046958e-02
2.203649087788410454e-02
-2.542885173620748271e-02
-6.666729945890303988e-02
-6.739485672687064999e-02
-6.065685470592366985e-02
-5.755554565441550752e-02
-5.669062819695831756e-02
-5.417859158502014161e-02
-5.322204246142292483e-02
-7.129729230181026944e-02
-9.315637674988445915e-02
-1.094432418902645254e-02
2.683415425901344853e-01
7.107678413091944591e-01
1.096481464834122788e+00
9.962516877463136744e-01
4.277244602616099289e-01
-1.581555405320625093e-02
-1.184782708342254631e-01
-1.015433079363408375e-01
-9.192822063580845249e-02
-9.822704428588457937e-02
-1.005145646497630357e-01
-9.336968735382687734e-02
-8.580796096443123189e-02
-7.660084073092644774e-02
-6.994603341631019933e-02
-6.459174342746852593e-02
-6.202104158591225519e-02
-6.037850827304746398e-02
-5.317362575165954230e-02
-4.823697160184807486e-02
-4.150154436163843580e-02
-3.527692840438539229e-02
-3.323109009128965424e-02
-2.492866028358906028e-02
-1.502137155178569217e-02
-3.552855538632364567e-03
5.345119697584542820e-03
1.301563122866612222e-02
3.031276759959400380e-02
4.786988453664085819e-02
6.706396091536787063e-02
8.615422486375524935e-02
1.062304709549293513e-01
1.332165445581595387e-01
1.560566098634312837e-01
1.776958462046564491e-01
1.973669774037267455e-01
2.091260343729299531e-01
2.084165745934679626e-01
1.848387996238144981e-01
1.440635396066570761e-01
9.066065205142508077e-02
3.015877659849976189e-02
-2.135664905712842884e-02
-5.820063044016883513e-02
-7.971154259336304948e-02
-9.315476097936735422e-02
-1.043376503560508733e-01
-1.082274885981732160e-01
-1.077478622735301289e-01
-1.034093532714799174e-01
-1.000559378628175095e-01
-9.754493889045402766e-02
-9.120312139824743314e-02
-9.023110512229749747e-02
-8.921390706918924662e-02
-8.485519524884611864e-02
-8.255022996128479063e-02
-7.960363853655161304e-02
-7.924935094373997124e-02
-7.859422066711355126e-02
-7.664289230200245495e-02
-7.304262424036088441e-02
-6.910918119794022541e-02
-7.366498840119252434e-02
-7.821736769697953950e-02
-7.843390927187215977e-02
-7.768228327912662934e-02
-7.402372085992296735e-02
-7.239484568542996212e-02
-7.246114438887216180e-02
-7.326204746505723953e-02
-7.321527017070360299e-02
-7.145803285842101948e-02
-7.093889813508719167e-02
-6.790554010328489487e-02
-6.747123938362602213e-02
-6.756684900282382278e-02
-6.253882229339698118e-02
-6.351932276806801503e-02
-6.424798383102979515e-02
-6.296107982961009208e-02
-6.415975346702319781e-02
-6.251265300324132523e-02
-6.149863089234643143e-02
-5.766681226971847457e-02
-5.472160075575958210e-02
-5.567962534037399630e-02
-5.265270638677073400e-02
-4.688919839004858370e-02
-3.351524740861868551e-02
-2.009903802684379417e-02
-1.441996860267295670e-02
-2.974212695005689668e-03
1.833596156627044504e-02
3.525752628784403070e-02
3.498081298378016152e-02
2.468569557040495646e-02
2.113752725250292105e-02
-3.800634714515871600e-03
-5.682262728986844924e-02
-8.279859888238706722e-02
-7.652331962740217819e-02
-7.019145997525930158e-02
-7.093048325743998850e-02
-6.871317016862898974e-02
-6.441224119407339133e-02
-6.834380667664499698e-02
-9.040356487949080533e-02
-8.931990704751360810e-02
6.400729896503486172e-02
4.068928989988608302e-01
8.561002226432550266e-01
1.096328016207455125e+00
7.801028576863786590e-01
2.183814211145966022e-01
-7.084524158034753716e-02
-1.065586299521807806e-01
-9.749474919536210704e-02
-9.911937819469547606e-02
-1.008836560551290423e-01
-1.016993235154435571e-01
-9.778458415835505901e-02
-8.987809530314849749e-02
-8.339158326437555446e-02
-7.466024150728794995e-02
-6.748259590625743654e-02
-6.337114294904791501e-02
-5.825703877620379972e-02
-5.593451137178064025e-02
-4.901299751223786583e-02
-4.170004127976872921e-02
-3.710574537494994857e-02
-2.824317227732907332e-02
-2.185049457190658267e-02
-1.285258097599908944e-02
-2.165408865903581653e-03
4.868844603752504364e-03
1.570098786869980265e-02
2.955587441272034682e-02
5.038930354391938510e-02
7.270719886958396105e-02
9.146401801074126314e-02
1.146434769992523695e-01
1.365049047827249507e-01
1.600761483149322206e-01
1.851859089518992640e-01
2.010514040006493031e-01
2.073271156072188370e-01
1.941806581582547486e-01
1.622571330729063455e-01
1.143385490946817185e-01
5.569400032173399406e-02
3.453463099106506354e-03
-4.073859702559794876e-02
-7.123475406578454183e-02
-8.922890752384932123e-02
-9.992793380734193986e-02
-1.006857529828400905e-01
-1.017856777010140990e-01
-1.022286265655920623e-01
-1.001319694246636111e-01
-9.962588378823514224e-02
-9.885723073332564059e-02
-9.700682449935768559e-02
-9.214650944058333515e-02
-9.116239868709240246e-02
-8.811993472616524992e-02
-7.975829650010825278e-02
-8.018445547108711546e-02
-7.860476043422115477e-02
-7.513193820223575126e-02
-7.546871383268341504e-02
-7.373326406613929518e-02
-7.550722112812224829e-02
-7.469232374180014011e-02
-7.471971919729533673e-02
-7.763280128825518489e-02
-7.580822996297759131e-02
-7.778441602446165004e-02
-7.672719886147404134e-02
-7.400014157780018809e-02
-7.426110816584770291e-02
-7.157712399309755502e-02
-7.283926631088974424e-02
-7.053288997986835451e-02
-6.732783081339673015e-02
-6.937696581391218642e-02
-6.598224128805130206e-02
-6.355379222886410606e-02
-6.272353038815431381e-02
-6.382220086861134511e-02
-6.573853098473889101e-02
-6.213385559852940832e-02
-6.173623106727069848e-02
-6.053385526622659385e-02
-5.600597395076015172e-02
-5.611661130177900830e-02
-5.639737566286989051e-02
-5.544917177471513775e-02
-5.320822975964981105e-02
-5.371317361882319702e-02
-5.486692327471107827e-02
-5.255171192612276276e-02
-5.352214615107567242e-02
-4.887642826274840591e-02
-3.487531726261793724e-02
-1.980391163714723471e-02
-8.778096207093404046e-03
-5.306949944478125958e-03
1.786856084388377744e-02
4.508514792822002765e-02
4.162494628074141223e-02
3.225897607469197653e-02
3.081476568429351859e-02
1.781466891314768472e-02
-2.934202254578645655e-02
-7.503028007176922032e-02
-7.517293824749425590e-02
-6.440452052946865624e-02
-6.414540361730461382e-02
-6.590324701124655737e-02
-6.598825766492952272e-02
-6.482340063009464637e-02
-8.546591801209627026e-02
-1.036812842986186145e-01
-3.174961968802478469e-04
3.008553519976780444e-01
7.656798999977534326e-01
1.127265024125132742e+00
9.771578647110926719e-01
4.178378326010405153e-01
-7.425733506300021989e-04
-1.071450931593151551e-01
-1.082469979684242412e-01
-1.082935493811282568e-01
-1.085144276478873515e-01
-1.081039780145532508e-01
-1.020951786258326721e-01
-9.672247033388370330e-02
-8.715144725283278937e-02
-7.908096720940677171e-02
-7.674956525118525885e-02
-6.902566920607526579e-02
-6.233702525292700303e-02
-5.803572950260368901e-02
-5.198074364903784716e-02
-4.834305600511065726e-02
-4.426409644030213086e-02
-3.927497239701065873e-02
-2.842106321722252110e-02
-1.837110340899377608e-02
-1.458896131403433251e-02
-4.393832371537321167e-03
1.009498604566885262e-02
2.660665115467138186e-02
4.170150786616880212e-02
5.761033164680978008e-02
8.209523323122897009e-02
1.071150846785465377e-01
1.360423060985287147e-01
1.614748520870527004e-01
1.790758082051927547e-01
2.011120566764472706e-01
2.123613981598886369e-01
2.077831762433132168e-01
1.860305805583625238e-01
1.414175227643810484e-01
8.549272679378931705e-02
2.612300536281379759e-02
-2.119319175385041623e-02
-5.437589866127465893e-02
-7.708877708893575875e-02
-8.591250511578663041e-02
-9.286022163439633381e-02
-9.440485494881049877e-02
-9.037424268866602051e-02
-8.763100915117888468e-02
-8.380138045933190061e-02
-8.361778473328418393e-02
-8.159458568067484707e-02
-7.943217223657342285e-02
-7.828891066241686070e-02
-7.316710012100725857e-02
-7.270899783829216922e-02
-7.445565214621141514e-02
-7.339678375735364524e-02
-7.230243952713261146e-02
-7.197780557602007079e-02
-7.384512784178678957e-02
-7.205901593086604107e-02
-6.898517730658922098e-02
-6.986704502576712716e-02
-7.153204644445040894e-02
-7.566698677674932316e-02
-7.627664839955436427e-02
-7.357557777138491739e-02
-7.198613289888991518e-02
-6.786840226827546563e-02
-6.904280302659554502e-02
-6.957878906980898004e-02
-6.751254999224630404e-02
-6.755555336491622653e-02
-6.190539757897927514e-02
-5.815363968946547779e-02
-5.597752428127024393e-02
-5.460991123561306781e-02
-5.674679183312071606e-02
-5.352814696711169495e-02
-5.366253981621274538e-02
-5.509770198051355816e-02
-5.389215764238070028e-02
-5.377921506038899069e-02
-5.138548997891723147e-02
-5.148025925275459547e-02
-4.919825026608645041e-02
-4.604899168779046786e-02
-4.748791810765993354e-02
-4.423764507410499203e-02
-4.360390639924072859e-02
-4.560013884400421214e-02
-4.576505645004431272e-02
-4.779386318078338719e-02
-4.673877379197920873e-02
-3.788259515182772902e-02
-1.925192701343327040e-02
-4.321738092914340600e-03
3.950509544264836268e-04
1.326698634811564539e-02
3.169809409827552965e-02
4.305577761448844964e-02
4.079636500506817615e-02
3.340967939058003128e-02
2.841949094915899310e-02
-9.968513386212397159e-03
-6.243241925041793927e-02
-7.139756335911422169e-02
-6.189252193906322197e-02
-6.227842691017224097e-02
-6.576938552784312997e-02
-6.401471069941903902e-02
-6.080628717467737726e-02
-6.975798624985775354e-02
-9.390609022335900946e-02
-5.144317635757590657e-02
1.748874585757371203e-01
5.813138283224968950e-01
1.013782303919881445e+00
1.061474745340697634e+00
5.639404423488264539e-01
5.111401157130529560e-02
-1.157676297548333455e-01
-1.070928433877250535e-01
-9.354266152976294102e-02
-9.861716246687973753e-02
-9.736665028446195302e-02
-8.917858575932280374e-02
-8.444951889434187953e-02
-7.804188169185050095e-02
-7.262310188324720694e-02
-6.664884661254304177e-02
-6.261632337673564419e-02
-5.969383058180013912e-02
-5.068048408411027911e-02
-4.575167326747572871e-02
-4.191151246760216331e-02
-3.549819849408215183e-02
-2.833007343793071675e-02
-1.971567368250982943e-02
-1.441964972088490872e-02
-6.209943268687106305e-03
3.300369338139659114e-03
1.280817099562069940e-02
2.630380052528302412e-02
4.042341077635558388e-02
5.996825651861850681e-02
7.983515495165542653e-02
9.853155243452113576e-02
1.221383615433280917e-01
1.467119636931064897e-01
1.715808843127087924e-01
1.924101171530667731e-01
2.043651813266706696e-01
2.077523253402319137e-01
1.931720427405338447e-01
1.598816040607687894e-01
1.085223120788814666e-01
4.584410319811007412e-02
-5.533904406726234369e-03
-4.600164158663926084e-02
-7.390506257006963786e-02
-8.818311303189539652e-02
-9.952614227771477973e-02
-1.044149513142917790e-01
-1.055805412057634618e-01
-1.034253599416588010e-01
-9.945851448547222973e-02
-9.616237568947923198e-02
-9.169462868835559499e-02
-9.128836025156170098e-02
-8.890293747658634116e-02
-8.764779604846978378e-02
-8.822037939913005000e-02
-8.270622921499150293e-02
-7.959650620965573464e-02
-7.797878732403268343e-02
-7.732363305343714632e-02
-7.834624611032203756e-02
-7.525596028268935478e-02
-7.441304632889027271e-02
-7.399449328824196648e-02
-7.372456633121006464e-02
-7.766234317339359983e-02
-7.883030761777644335e-02
-8.074229135721211481e-02
-7.979827943172562721e-02
-7.520920298251204672e-02
-7.610773183596425406e-02
-7.680848966416048418e-02
-7.725023389715765521e-02
-7.496246273209539179e-02
-7.376762537311463974e-02
-7.548167613095059514e-02
-7.063142410367502511e-02
-6.686107581847237913e-02
-6.768336947894926237e-02
-6.757882379189518451e-02
-6.513092695796357523e-02
-6.217856744861419843e-02
-6.360191591495022168e-02
-6.354394917914372998e-02
-6.139182230990131162e-02
-5.923257908585252696e-02
-5.447931385731302062e-02
-5.654631335259022867e-02
-5.819290099559131652e-02
-5.253617364482411622e-02
-4.776279785328781807e-02
-3.862833918228905650e-02
-2.472427576376524591e-02
-1.167778404609623281e-02
-6.552690763007582367e-03
7.224279362808772725e-03
3.123271732809939846e-02
3.512837422066534404e-02
2.663952318546312925e-02
2.464890546152923023e-02
1.466966628111572926e-02
-2.680679505959624592e-02
-7.310644826893525350e-02
-7.828343604771877129e-02
-6.607035465443930611e-02
-6.479961166710808407e-02
-6.627078165460428827e-02
-6.592235730783593817e-02
-6.021206523790782056e-02
-7.547748611038265776e-02
-1.048731725198873282e-01
-2.145379443072966200e-02
2.491166971636588068e-01
6.770247825649311491e-01
1.062052759116710821e+00
9.780529109339358707e-01
4.414506138097967214e-01
7.102669964699017541e-03
-1.074200320973803802e-01
-1.046304872416833898e-01
-1.070003836919043716e-01
-1.103471242147818221e-01
-1.117404129217679787e-01
-1.049504481443992304e-01
-9.432469035308489735e-02
-9.090335819393879913e-02
-8.375256990554647007e-02
-7.543662989727764612e-02
-6.845861183170694197e-02
-6.222634612848102625e-02
-6.055932218727028138e-02
-5.543912934538883924e-02
-5.000355774466887226e-02
-4.496320513756039972e-02
-3.790888792372049815e-02
-3.106566914610094446e-02
-2.330796763708621946e-02
-1.917202307380930226e-02
-7.625458521107192876e-03
8.616679223923276107e-03
2.060422967338351730e-02
3.823920011242042810e-02
5.798549457782237182e-02
7.957105579221099290e-02
1.032096166542754850e-01
1.246741960393489557e-01
1.499238928181466646e-01
1.735228333696951231e-01
1.935259308222408159e-01
2.049094843328850557e-01
2.049827424569121426e-01
1.882181947117857745e-01
1.417333727818292644e-01
8.495003571365021544e-02
3.247831255730617567e-02
-1.624443273572222582e-02
-5.313997202605676151e-02
-7.878975846999256016e-02
-9.141328017375603687e-02
-9.785297948290866410e-02
-1.038096870549173184e-01
-1.043679737484397435e-01
-1.059832427025864110e-01
-1.055053357281854898e-01
-1.023099071751908257e-01
-1.027770529691778290e-01
-9.556049560957279032e-02
-8.871327643281969044e-02
-8.744566804634179569e-02
-8.614055111189315717e-02
-8.677529444756143517e-02
-8.261332987974628894e-02
-8.098017637024641779e-02
-8.178214324618975073e-02
-7.892999711209230940e-02
-7.579165742921015192e-02
-7.218757279407943261e-02
-7.432255285376325460e-02
-7.557073129396593703e-02
-7.503806741070569164e-02
-7.655378223855241471e-02
-7.624108395558282236e-02
-7.720449311831409367e-02
-7.574846129954286578e-02
-7.204684817443306188e-02
-7.119034375478314192e-02
-7.093941525408228865e-02
-7.197614259392703939e-02
-6.913810633674068173e-02
-6.572492160928970761e-02
-6.700748082304895659e-02
-6.565923761810003867e-02
-6.522198254505265358e-02
-6.406775855641370920e-02
-6.139549138993517785e-02
-6.185959072847140722e-02
-5.909348446611222688e-02
-5.849638421686063211e-02
-5.769648377682148888e-02
-5.780000338066635518e-02
-5.956771034708693846e-02
-5.554593937853730123e-02
-5.594259457834549476e-02
-5.824344933660281776e-02
-5.801362313906363588e-02
-5.806950890672366028e-02
-5.541536804652380521e-02
-5.733788048116136848e-02
-5.932489087447927884e-02
-5.610964379924532341e-02
-4.869047176584426206e-02
-3.116289536002469704e-02
-1.442610044954593246e-02
-7.865967661781393325e-03
1.822114118743644153e-03
2.317642126401085745e-02
3.793878161850549463e-02
3.007826634432142487e-02
2.068484899210180916e-02
2.040847983835288385e-02
-3.843427339986840285e-03
-5.694113276721159134e-02
-8.672565668784466830e-02
-7.771153971637391467e-02
-6.922794556079020500e-02
-7.152238632545541985e-02
-6.964247569220063938e-02
-6.810271093668389397e-02
-7.263317465908412929e-02
-1.011581064676163461e-01
-9.344782500415776960e-02
8.980705886137117788e-02
4.750183182615658750e-01
9.501894086175175502e-01
1.141937487376553984e+00
7.623124746895775239e-01
1.977289646237666565e-01
-8.080838834878030508e-02
-1.159928407238758341e-01
-1.060542911148394940e-01
-1.094529006397692295e-01
-1.130991712486203310e-01
-1.129912192800714144e-01
-1.049188485633430895e-01
-9.610781493045213175e-02
-9.433935851181483867e-02
-8.607841134332261390e-02
-7.830361927719721449e-02
-7.624113438151375322e-02
-7.063063824999579743e-02
-6.411773978794417517e-02
-5.633798796276309750e-02
-4.946021853720735523e-02
-4.268102374677385652e-02
-3.813263991079707260e-02
-3.237227495234201030e-02
-2.052216861851366078e-02
-1.219945371573204901e-02
-2.185497799732159623e-04
1.557866385871201943e-02
2.667465579280524357e-02
4.454634730625631200e-02
6.449735789547499099e-02
8.468325062557233163e-02
1.093006896922047028e-01
1.331935331340280970e-01
1.597629833364807572e-01
1.820585829067505879e-01
1.975627470712156553e-01
2.054878258558971160e-01
1.967733465545447313e-01
1.697144844441637601e-01
1.202427668642571251e-01
6.171968541679882098e-02
6.772970901393816912e-03
-4.112777123482779656e-02
-7.272833512251551669e-02
-9.359078647436545884e-02
-1.033735229751610030e-01
-1.045205383646291425e-01
-1.078310120293648755e-01
-1.046074588871616085e-01
-9.931307974770658964e-02
-9.955684789352392539e-02
-9.973886971731212026e-02
-9.519058170392259710e-02
-8.711331195540512884e-02
-8.483898424496176538e-02
-8.439923717359446020e-02
-8.288228748905404619e-02
-8.372554420848271617e-02
-8.254307486709344666e-02
-8.110377679068214718e-02
-8.000041643345925935e-02
-8.182613852096784490e-02
-8.361779564433578782e-02
-7.996998088082193923e-02
-8.178941482187311596e-02
-8.378672106139166409e-02
-8.116280223917135550e-02
-8.234148468138657861e-02
-8.171779050627431262e-02
-8.092090328866910487e-02
-7.941560622399547464e-02
-7.773316804624538778e-02
-7.959775694302770321e-02
-7.837431344962939028e-02
-7.840453026241689383e-02
-7.735992251643217243e-02
-7.264842985939677644e-02
-7.185911712076988034e-02
-7.184304943376799979e-02
-7.182345758207969721e-02
-7.178336278525430936e-02
-7.151564330880257059e-02
-6.957362965515338782e-02
-6.314235989130127791e-02
-6.239239217199415988e-02
-6.263000349702618763e-02
-5.885702598002857944e-02
-5.970381550976536222e-02
-5.815559817119693442e-02
-5.456073653737686380e-02
-5.418015859484889840e-02
-5.534592133887718257e-02
-5.471626388991168710e-02
-4.944342052479424460e-02
-4.785108420422284903e-02
-4.029576906917071988e-02
-2.065925345350656805e-02
-7.736419810884341899e-03
2.311645700474522058e-04
1.631389943519185801e-02
3.487740595088719558e-02
4.064134615675987772e-02
3.070882326899559631e-02
2.552001110482011309e-02
6.053157002875300674e-03
-4.633988961477719659e-02
-7.981235444233232557e-02
-7.635180520279827299e-02
-6.836006172090770827e-02
-6.703787169915574606e-02
-6.344034189192106210e-02
-5.753771751818273494e-02
-5.811487087875677471e-02
-7.830642294527803693e-02
-9.362831337603570725e-02
2.739566666447360715e-02
3.439519714685460583e-01
7.878143227540994609e-01
1.094549602617744144e+00
8.558447968022016017e-01
2.713648845192960790e-01
-7.335294622700774814e-02
-1.190075524632319692e-01
-9.497661968118591147e-02
-9.081741331280795970e-02
-9.367103508669823164e-02
-9.346815945920111668e-02
-9.198703350818834834e-02
-8.472256067284739123e-02
-8.216334271899364272e-02
-7.588170016441489474e-02
-6.414929050927431486e-02
-6.176412399436234657e-02
-5.802222089696738166e-02
-5.383733782739437423e-02
-5.146971877891894087e-02
-4.355503648288003293e-02
-3.556629329757212549e-02
-2.691660252349864502e-02
-2.169368944963388085e-02
-1.740479268724968304e-02
-6.904370969155919531e-03
4.667236120566959148e-03
1.872049761247301242e-02
3.180374442297247833e-02
4.645888860709961737e-02
6.510073061556474749e-02
8.464052658996799872e-02
1.090642529131857219e-01
1.313794538153970348e-01
1.523652293791113999e-01
1.756372254690609369e-01
1.951152336766387718e-01
2.073234691406340147e-01
2.013545814112794319e-01
1.770176293940615986e-01
1.358498439326044360e-01
7.770809984004295456e-02
2.326979170571630631e-02
-2.409367787213145470e-02
-6.300470254700274442e-02
-8.534412301314568683e-02
-9.786496119572632435e-02
-1.021007588462653770e-01
-1.071404731503501212e-01
-1.116737735833095713e-01
-1.089985890538980873e-01
-1.055814579533434217e-01
-1.010742203980061205e-01
-9.974078795385921126e-02
-9.671818488716769913e-02
-9.060691755453702256e-02
-8.829154445301570786e-02
-8.389956355047301084e-02
-8.323192056840422737e-02
-8.451979340175837241e-02
-8.247039505507024193e-02
-8.224036953861091348e-02
-7.964974393176843526e-02
-8.050304470287379666e-02
-8.231907698138798968e-02
-8.102219061605299422e-02
-8.235439374492205256e-02
-8.008637460267055419e-02
-7.840746693944328216e-02
-7.754569546811712621e-02
-7.520155732158947948e-02
-7.676656793927821854e-02
-7.512168768347907144e-02
-7.471204127253404381e-02
-7.255529463715905403e-02
-6.677918939442958890e-02
-6.859894318766553145e-02
-6.829564686319146427e-02
-6.652278706456794810e-02
-6.529264672414979154e-02
-6.219609038807116796e-02
-6.290513373012877885e-02
-6.152891812341337169e-02
-6.177467373896372571e-02
-6.079155353691768904e-02
-5.719867992860255129e-02
-5.829394285420256422e-02
-5.578498119617204820e-02
-5.513114049594647348e-02
-5.463556186138662091e-02
-4.800690535783505575e-02
-3.839486149301712253e-02
-2.057543387005408841e-02
-7.934229551670437738e-03
-1.331649484318899509e-03
1.614638446866945021e-02
3.050788193032965764e-02
3.283890609494923007e-02
2.845840898949999684e-02
2.647879983017616123e-02
1.431289638025081724e-02
-3.656608437213305224e-02
-8.015447699689727534e-02
-8.102416034903453523e-02
-7.178276116093347536e-02
-6.915293658730438386e-02
-7.115156068489428276e-02
-6.675410808129796092e-02
-6.400890659349664502e-02
-8.690680725333803369e-02
-1.098321441871536602e-01
-1.203071757926191428e-02
2.810358334623045962e-01
7.229680561610253298e-01
1.085261408542109063e+00
9.511331896653184570e-01
3.922515475245716421e-01
-1.666996527864320413e-02
-1.142225897632892506e-01
-1.133178286584527461e-01
-1.132390769550340875e-01
-1.143107295952998925e-01
-1.113716018104230071e-01
-1.075410559212423012e-01
-1.014728844402475599e-01
-9.357514890136636732e-02
-8.789018852309005148e-02
-7.850688347499897024e-02
-7.267821805907329069e-02
-6.849139630837162984e-02
-6.247304730816088947e-02
-6.078379066211721249e-02
-5.390179504064081251e-02
-4.569230329301755822e-02
-3.878708821938121193e-02
-3.166271406262294308e-02
-2.479686156026050803e-02
-1.316516232991823444e-02
-7.880340992041668866e-03
4.673001604214659620e-04
2.074761601782047077e-02
3.702906814505473737e-02
5.591159100721682096e-02
7.954901717904665215e-02
1.035310974278925156e-01
1.296052052104740004e-01
1.539999599798677621e-01
1.765603547703903375e-01
1.924274316115228145e-01
2.030208547425910448e-01
2.033575956497232218e-01
1.797945489330667612e-01
1.357049056586975000e-01
7.996381712062292091e-02
2.671340329471337538e-02
-1.956448206875625873e-02
-5.850102145742535481e-02
-8.045647255938914721e-02
-9.248343626170227316e-02
-9.835142161788523740e-02
-9.737987573970657840e-02
-9.803250329595630808e-02
-9.601804310093237094e-02
-9.405186803400608642e-02
-9.317538223995036617e-02
-8.951318868543700624e-02
-8.701061596919401619e-02
-8.466765171413720426e-02
-8.571218419249389264e-02
-8.392994300326027390e-02
-7.914108181501265660e-02
-7.852746461867392280e-02
-7.708818850714692361e-02
-7.828380595293413236e-02
-7.692455028371592007e-02
-7.109185508965794320e-02
-7.228210605621974982e-02
-7.427738263659708351e-02
-7.615497964607260972e-02
-7.782420171713876067e-02
-7.660948357288059618e-02
-7.715250134145584804e-02
-7.636608110514124526e-02
-7.555357543172531998e-02
-7.240874167315473897e-02
-6.964729076855553924e-02
-7.153295194268148582e-02
-6.953293487284099850e-02
-7.086278628102547772e-02
-7.234598657658460052e-02
-7.139570778621523450e-02
-7.526287178106083608e-02
-7.392997967447516305e-02
-7.102359124700424742e-02
-7.102570945122413382e-02
-7.211355995755930337e-02
-7.415435792399777126e-02
-7.039415869969983808e-02
-6.759311066692126613e-02
-6.653082442314769973e-02
-6.519901077204322271e-02
-6.564244607591300518e-02
-6.099810951059018299e-02
-5.923398154658458120e-02
-6.012009910743375957e-02
-5.770759101751254949e-02
-5.834249169661446383e-02
-5.822286370884219298e-02
-5.945445224505027659e-02
-5.877710466984149840e-02
-5.046180307743770854e-02
-3.925727216469931946e-02
-2.160126974292754520e-02
-8.045227142644625559e-03
-4.436731699419179113e-04
1.818008371424984990e-02
3.451848694009586327e-02
3.557641860764215042e-02
2.699860855778125207e-02
2.440891861724200917e-02
1.013100840113591479e-02
-4.565136454412167810e-02
-8.529956055294482531e-02
-8.114127379524106731e-02
-7.271922243251857654e-02
-6.954150534262222572e-02
-7.088776447103577183e-02
-6.932738926987723482e-02
-6.904494589536185056e-02
-9.300910504335394013e-02
-1.094007848350146833e-01
7.915409993786797632e-03
3.338534788117014651e-01
8.083802671524162875e-01
1.141969755097093087e+00
9.371014699299327066e-01
3.571672031732479602e-01
-3.147915776433680285e-02
-1.141233224317752121e-01
-1.108624566743342116e-01
-1.153183672651399844e-01
-1.222772539617459214e-01
-1.188322689612866800e-01
-1.106936425931319273e-01
-1.038124323982788227e-01
-9.253959340133646738e-02
-8.459982178251802820e-02
-7.793509908120438423e-02
-7.471842841121681400e-02
-7.401213236360383585e-02
-6.530997132398218274e-02
-5.626596703647998576e-02
-5.094057010520781914e-02
-4.755483204787183671e-02
-4.125302474713477691e-02
-3.091564759280367516e-02
-2.396224320987037221e-02
-1.537667710724507919e-02
-4.541860357719978633e-03
9.447918084932390576e-03
2.615569619993133449e-02
4.166879594209354359e-02
6.177684320195120371e-02
8.034113527285584311e-02
1.026687175303131472e-01
1.321670476654144555e-01
1.557337680398245550e-01
1.783993688864027871e-01
1.970574656852459583e-01
2.072823574827613591e-01
2.055864078281021412e-01
1.821156285387551810e-01
1.426689550334397649e-01
8.834133614867813178e-02
2.832281420945735595e-02
-2.067892589164214978e-02
-5.691800479594338880e-02
-7.886920979114064867e-02
-9.271620306620337315e-02
-1.004752947086491599e-01
-9.941977072818977690e-02
-9.974721064190851527e-02
-9.677472033562778408e-02
-9.068339182938078835e-02
-8.876413354891413143e-02
-8.573926048665592159e-02
-8.237081676324672919e-02
-7.751689940234278431e-02
-7.684883920697074822e-02
-7.846862696424333761e-02
-7.604422255695658661e-02
-7.718385321074106020e-02
-7.789448759790289223e-02
-7.813853200552393907e-02
-7.770216747525493517e-02
-7.692030447989955944e-02
-7.881745517717925198e-02
-7.786147437966906004e-02
-7.905431196279502637e-02
-7.977535162541174452e-02
-7.548064099983613218e-02
-7.404001466592420588e-02
-7.301343332011318854e-02
-7.216522910274118796e-02
-7.038825880795414325e-02
-6.696892033356141583e-02
-6.772001441695688073e-02
-6.390512672270833028e-02
-6.052264214021418204e-02
-6.222619108346283401e-02
-6.253734481907349818e-02
-6.763091616617900037e-02
-6.745454592460985166e-02
-6.583221154672375119e-02
-6.506165188721534098e-02
-6.015566655381487243e-02
-5.949591625789268229e-02
-5.895675383119006185e-02
-5.960293021469979108e-02
-6.017793751048600148e-02
-6.149964368553154787e-02
-6.571604228685017091e-02
-6.396923721915091787e-02
-6.126723831078709909e-02
-6.207255786147074933e-02
-6.139420773446196272e-02
-6.046467296345850451e-02
-5.543293863414014422e-02
-5.049871298165392597e-02
-5.174733839204851554e-02
-3.910004386057933795e-02
-1.840644424218988370e-02
-8.588169954139458079e-03
-9.466810445392078235e-03
2.990513988604323169e-03
2.949381857893579317e-02
3.916785034187805770e-02
3.401251318753860386e-02
2.696912692142755183e-02
1.299391954055086063e-02
-3.059266006490084580e-02
-7.521726932265544729e-02
-7.531552253953037457e-02
-6.469087112775086246e-02
-6.342624089371999563e-02
-6.500475909704493682e-02
-6.774162077298848117e-02
-6.384366894990796404e-02
-7.417731673303269713e-02
-9.813256080934262826e-02
-2.905287318270160721e-02
2.243597469604662609e-01
6.473884554101287936e-01
1.045185738038420631e+00
9.843310185306655136e-01
4.407709290638755495e-01
-1.387738096381708509e-02
-1.252535276597514791e-01
-1.024354124443050129e-01
-8.890068682436090552e-02
-9.125982769741323997e-02
-9.622217882530414990e-02
-9.323840339690551982e-02
-8.672651237891380871e-02
-8.281507036396636157e-02
-7.731858989628684342e-02
-7.231670687675879894e-02
-6.660986444555583308e-02
-5.968286776034370522e-02
-5.271553697802287136e-02
-4.615685838554868525e-02
-4.401523643372787925e-02
-3.996776706807578239e-02
-3.181939901210513455e-02
-2.474152753505158911e-02
-1.674093974091517625e-02
-1.020176760777488124e-02
-3.314321957063221273e-04
1.272724442573299267e-02
2.567653485623345999e-02
4.235608190318415622e-02
5.918970148601682135e-02
7.931393915592767352e-02
1.017922951161659706e-01
1.236204970369020190e-01
1.491860790249122937e-01
1.734987224203996536e-01
1.930790972245586268e-01
2.048614705226897148e-01
2.077556023230306137e-01
1.952150692713639502e-01
1.556085441075599485e-01
1.018315643272425935e-01
4.392929494125932116e-02
-8.389916250056209113e-03
-4.377269120854378193e-02
-7.330808479027260682e-02
-9.170151291601591481e-02
-9.746671385402944088e-02
-1.007252405071584617e-01
-1.014871799996198559e-01
-1.005943014281673042e-01
-9.676018351102606829e-02
-9.498749083644619784e-02
-9.154073084049726972e-02
-8.595924482412092837e-02
-8.693438357075634892e-02
-8.696940099535355184e-02
-8.143346953405114497e-02
-7.318967471771074818e-02
-7.096616953524219340e-02
-7.441654197495954637e-02
-7.088558616328448359e-02
-6.998732231319897135e-02
-7.204378082333551259e-02
-7.057920285994981335e-02
-7.137984594908994285e-02
-6.932921662673824370e-02
-6.981602048878976507e-02
-7.280345286251037329e-02
-6.880887824499852534e-02
-6.557104316952587497e-02
-6.457938585134642695e-02
-6.626125484334748073e-02
-6.567557294562542669e-02
-6.336789824595827347e-02
-6.627617135742963628e-02
-6.166584643792621251e-02
-5.614962557143008542e-02
-5.676858730158043653e-02
-5.630103459272020605e-02
-5.726292237025929627e-02
-5.519178279427146283e-02
-5.509687632514026490e-02
-5.740648630525316959e-02
-5.419713712221604918e-02
-5.206937821434420854e-02
-5.195886602698662760e-02
-5.082678520312292753e-02
-4.762396383356300167e-02
-4.358698353714374890e-02
-4.412960767914460986e-02
-4.306644240599653145e-02
-4.045775028520486039e-02
-4.024129760977094433e-02
-3.950592962355062993e-02
-3.833483713797654346e-02
-2.666081291201564257e-02
-8.290911623226275909e-03
9.367771403161556871e-04
5.030327924301527913e-03
2.103099411199906357e-02
4.000910601370569197e-02
4.149968303596953539e-02
3.542506324821998592e-02
3.383218282750768968e-02
2.470311516563917717e-02
-1.658753842078601257e-02
-6.358076332642496886e-02
-6.832651303425237022e-02
-5.599044025043447420e-02
-5.574085980671833473e-02
-5.603382441300916450e-02
-5.528176680249187458e-02
-5.382658880989436151e-02
-6.929842131315148979e-02
-9.506849484676298256e-02
-5.319840085618964334e-03
2.796985504046722304e-01
7.252776686522705019e-01
1.101744473891726361e+00
9.789008148884864591e-01
4.265319306487702078e-01
8.021843289615178049e-03
-9.717006871333140616e-02
-9.393272786224576842e-02
-9.634397454069801303e-02
-9.782487409124512867e-02
-9.555504952806020968e-02
-8.992786308902389614e-02
-8.019531980570931973e-02
-7.431971992717104070e-02
-6.849532256402082742e-02
-6.298177540408839148e-02
-6.044270816674757185e-02
-5.597004785260056153e-02
-5.186587640630389157e-02
-4.553354596281011107e-02
-3.926313475637614042e-02
-3.445448721743728238e-02
-2.848535766037940675e-02
-2.487293623703169115e-02
-1.568857041836952543e-02
-5.900844656019115474e-03
2.294735417853382541e-03
1.538077334444604843e-02
2.753760493268590792e-02
4.403645280821899544e-02
6.403826970563197829e-02
8.469281603550940507e-02
1.081404372173330186e-01
1.302728836250662547e-01
1.574645579429412579e-01
1.823260085376099404e-01
2.004028433904223305e-01
2.137174451021061350e-01
2.129279771614146499e-01
1.955056983525632619e-01
1.557395062199440350e-01
1.007214346160237861e-01
4.843895376443755479e-02
-1.049725822634117126e-03
-4.174110914508889075e-02
-6.760968889253278491e-02
-7.958788796766792795e-02
-8.630317686424802959e-02
-9.212682610480887879e-02
-9.147925561538146344e-02
-9.101255974951444339e-02
-8.824382276437899020e-02
-8.391133512474914513e-02
-8.290486202861946374e-02
-7.647308283915449367e-02
-7.465341356403147610e-02
-7.819545147089423942e-02
-7.566367425869634233e-02
-7.160304980627650584e-02
-6.892146848020200278e-02
-7.006326191292402972e-02
-7.061525579507338390e-02
-6.686808506889439785e-02
-6.812332857476850745e-02
-6.780396003960353912e-02
-6.560948633874254254e-02
-6.607554459334832875e-02
-6.487420239181257431e-02
-6.544540051102246125e-02
-6.665266225725044458e-02
-6.475569431412568633e-02
-6.050607765101326946e-02
-5.856583821136648882e-02
-6.117237263759738725e-02
-6.058947071970808423e-02
-6.004547305614509750e-02
-5.789116005255223046e-02
-5.501196889756080483e-02
-5.666737107142062746e-02
-5.540948922751472161e-02
-5.405322058096295734e-02
-5.249028182100730355e-02
-5.120217132632845503e-02
-5.325426614270106773e-02
-5.043636707306123346e-02
-4.860555738410547028e-02
-4.795565047625384436e-02
-4.566633380480814020e-02
-4.875457791082027370e-02
-4.864093274347761758e-02
-4.426834133381656045e-02
-4.278956776546997270e-02
-4.244793342898126737e-02
-4.490131008069205704e-02
-4.412589746850076322e-02
-4.191707903035077343e-02
-4.252604198486195641e-02
-3.985742167822287074e-02
-3.435266957675325167e-02
-1.800693140897990929e-02
1.006019857244546756e-03
7.290554244966169183e-03
1.881660401618276066e-02
4.152589762977260124e-02
5.356952497912769590e-02
4.914155506376565591e-02
4.255698540414996206e-02
4.015669503992177342e-02
1.876992347985791468e-02
-3.409175122520308188e-02
-7.128313621024633118e-02
-6.835441539700766456e-02
-5.976862930214744962e-02
-6.030456318811525801e-02
-5.883935248699628112e-02
-5.682036099507797866e-02
-6.075086165732956206e-02
-8.880553378874304904e-02
-9.389104730701296198e-02
6.247155917525283597e-02
4.224669094318761475e-01
8.969251218126839120e-01
1.153079293620925538e+00
8.439814809133656670e-01
2.691787920131343270e-01
-5.231460649158189979e-02
-1.085183066141550273e-01
-1.038272161493088430e-01
-1.083888245475306128e-01
-1.121373621281872568e-01
-1.079375963009720912e-01
-9.865788185496773832e-02
-8.991568593824661448e-02
-8.500244290631242539e-02
-7.678320974706635826e-02
-7.015579527208053168e-02
-6.647265850586102365e-02
-6.006619854488975951e-02
-5.457051595076302386e-02
-4.888585770855598950e-02
-4.394282911210891512e-02
-3.653276206720841579e-02
-2.906366824470049334e-02
-2.551894307446829491e-02
-1.727168533113991600e-02
-5.998852511722706574e-03
4.082694738094326536e-03
1.564854535819097323e-02
2.991608937218922029e-02
4.937602849445687364e-02
6.683028834685930675e-02
8.401328667754300039e-02
1.082642959180481201e-01
1.326632948232446818e-01
1.576901615598862716e-01
1.831700525881197750e-01
2.049562583899091628e-01
2.139560140120789211e-01
2.039786713399202867e-01
1.836977772676874343e-01
1.450040956611257925e-01
8.749012259482052967e-02
3.240687140167031882e-02
-1.655318047264558654e-02
-5.229892244420391439e-02
-7.273250029465663791e-02
-8.617790370176969805e-02
-9.167790560383191900e-02
-9.504223848442011624e-02
-9.402478823485446724e-02
-8.840378412159322075e-02
-8.358067319074075074e-02
-8.089319244706882905e-02
-8.246239655614168163e-02
-7.706820941426562044e-02
-7.108699676343320506e-02
-7.240032047681704830e-02
-7.011037024514930882e-02
-6.814254780226064456e-02
-6.618562999607237318e-02
-6.661380208020127591e-02
-7.188828082008007214e-02
-7.300464427708316939e-02
-7.244520458247555306e-02
-7.024389141088895061e-02
-6.939951714863085153e-02
-7.146600084938915798e-02
-6.995243938768137826e-02
-6.883284930920989531e-02
-6.724707075779400023e-02
-6.698743947728540149e-02
-6.604826423594593876e-02
-6.191957762554703426e-02
-6.313270598918251097e-02
-6.316712422422914031e-02
-6.102289185885939604e-02
-6.103491683210499064e-02
-5.809324408160831260e-02
-5.700647232336542025e-02
-5.820300767205478787e-02
-5.718423841245099531e-02
-5.418493513215741353e-02
-5.139095222019451209e-02
-5.250757001856857370e-02
-5.272511516101505147e-02
-5.245668994794799866e-02
-5.197262369766197238e-02
-4.695793590504827864e-02
-4.427671084757113518e-02
-4.457050061673475255e-02
-4.801436927294833873e-02
-5.080781200642147527e-02
-4.695893291326780350e-02
-4.426093014484118460e-02
-4.034256731824531483e-02
-3.899444004138735709e-02
-4.224595927689872576e-02
-3.160921801397878483e-02
-1.267733126285270663e-02
-1.920400919554813267e-04
2.653032392378450524e-03
1.659291740131333889e-02
4.518015964915333277e-02
5.382202678965604392e-02
4.742749287604636904e-02
4.009395765920683447e-02
2.546015155847332345e-02
-1.219646081764580448e-02
-5.592568828778243795e-02
-6.429555662836154706e-02
-5.767781758613554910e-02
-5.807943087474773391e-02
-5.668395846165972390e-02
-5.422651449004087937e-02
-4.999674966518426189e-02
-6.216768240328904988e-02
-8.970295182595125483e-02
-2.403104265264549566e-02
2.294790176003937143e-01
6.551711584084544127e-01
1.058463470538153040e+00
1.004757565676348774e+00
4.631819999174718316e-01
1.631924797850661064e-04
-1.206128498014893413e-01
-9.979899803221747856e-02
-8.354371856064027324e-02
-8.266629732243430118e-02
-8.594183653013957869e-02
-8.286063601937462830e-02
-7.669353968968489754e-02
-7.154351937025103803e-02
-6.308316855214687879e-02
-5.723841327751699737e-02
-5.141034839446373406e-02
-4.679088858408823187e-02
-4.464738153326494596e-02
-3.824018415850155561e-02
-3.251456324656538249e-02
-2.588521755895887427e-02
-2.118073239063097968e-02
-1.892765936249336811e-02
-1.012758243275165004e-02
-1.862598800347836647e-03
1.041648293356016441e-02
2.484274574264162469e-02
3.474027845083580562e-02
4.847172015943002066e-02
6.552132927149260933e-02
8.512279710872365512e-02
1.062113890461407473e-01
1.297966275266151104e-01
1.566683980277022437e-01
1.772598043853174654e-01
1.963539263687333336e-01
2.104241039298635207e-01
2.126262574540168926e-01
2.009885290827439219e-01
1.641395783202509728e-01
1.106109774871421592e-01
5.391464851614502507e-02
4.576503165381068210e-03
-3.235642957593120456e-02
-6.504191601254968869e-02
-8.501955196750254906e-02
-9.122275085663678063e-02
-9.324021406153498726e-02
-9.328923336287266166e-02
-9.470629135650998620e-02
-9.239271523228347049e-02
-9.087994068258145597e-02
-8.904447674952681302e-02
-8.173892551899018810e-02
-8.053060725056929159e-02
-7.693018057268601051e-02
-7.309024605140029829e-02
-7.425574887215273534e-02
-7.050998596785532091e-02
-6.701412908164978977e-02
-6.320109295149077544e-02
-6.237872409956499165e-02
-6.606232625785678214e-02
-6.510798565186234899e-02
-6.527193660802188546e-02
-6.622771708930136336e-02
-6.522332951742444707e-02
-6.386214220111478823e-02
-6.217109546478163939e-02
-6.481219170101290561e-02
-6.565813823466264132e-02
-6.479310167933344244e-02
-6.543188657177549661e-02
-6.192961660454515682e-02
-6.041716536111518127e-02
-6.213370277895743921e-02
-6.380361929605088411e-02
-6.045259373696951904e-02
-5.670887701591312974e-02
-5.903564121480430610e-02
-5.704717103615063872e-02
-5.465283469033756225e-02
-5.569152485060185898e-02
-5.343274364575765351e-02
-5.224617360977393959e-02
-5.090777972638319687e-02
-5.193219454061437368e-02
-5.233268539633241512e-02
-4.620310428762812449e-02
-4.429410458770639131e-02
-4.153368411119779530e-02
-2.932937266790484887e-02
-1.413851867402964903e-02
-2.902124610325311840e-03
7.270300505163516643e-04
1.818369333331737100e-02
4.071949784113071402e-02
4.275419189072116044e-02
3.437068263038749877e-02
2.898641872284718479e-02
2.137376877635785780e-02
-2.200103828210495105e-02
-6.998987598189114478e-02
-7.026804803939398769e-02
-6.145708782143243648e-02
-6.152004886775763043e-02
-6.024723668748202532e-02
-5.958946556427368452e-02
-5.762415334220599705e-02
-7.803595872869265038e-02
-9.739052258224184522e-02
6.584089148183955992e-03
3.044421048046647149e-01
7.563075014479961888e-01
1.109561754683862089e+00
9.555601457488775985e-01
3.971830240601226802e-01
-7.466161323726206236e-03
-1.027633028839121387e-01
-9.946470589142011876e-02
-9.925223633287141856e-02
-1.048161396533418693e-01
-1.061937427831168429e-01
-9.738533284670299051e-02
-9.240529828204979701e-02
-8.594668843463242058e-02
-7.898645462494668923e-02
-7.398756309506125672e-02
-6.441258895709303656e-02
-5.867957838301252060e-02
-5.360508023489384682e-02
-5.029144226984744170e-02
-4.875250864435723419e-02
-4.025540533635713070e-02
-3.286057218696895876e-02
-2.584971902530494581e-02
-1.673342823490668943e-02
-8.241806786965991463e-03
1.736920624738496266e-03
1.138927866795474801e-02
2.682680343155623148e-02
4.636709166527455683e-02
6.451393074672179262e-02
8.562686928687868182e-02
1.074344409014315049e-01
1.319052772007272833e-01
1.564917346276214760e-01
1.776948591016331847e-01
1.981996482233396306e-01
2.097287479985459613e-01
2.068087113664994758e-01
1.851375978783323384e-01
1.442610501657762556e-01
9.069833114196698687e-02
3.319651555421370553e-02
-1.251121847842499857e-02
-4.744847843379784019e-02
-7.344017549927099597e-02
-8.465582261051980695e-02
-9.149560738587267372e-02
-9.418532173689581066e-02
-9.311702475779606858e-02
-9.316382481114521275e-02
-9.068069553096952395e-02
-8.917990494900596143e-02
-8.661944533172039051e-02
-8.143632493749095036e-02
-7.715407121024515924e-02
-7.356962956440547818e-02
-7.295198782294741446e-02
-7.048882529500566374e-02
-6.773371635471793495e-02
-6.747279222070731719e-02
-6.418298874403650933e-02
-6.405914997839678993e-02
-6.417623623461819748e-02
-6.276323331923631954e-02
-6.452789119140027452e-02
-6.599182993094455940e-02
-6.855432576050339566e-02
-6.730298611500541706e-02
-6.422962487265235221e-02
-6.458049194993040198e-02
-6.290247867481010835e-02
-6.245987384192545205e-02
-6.248892171632763892e-02
-6.139879299566863846e-02
-6.080777352122544027e-02
-5.834818996587792794e-02
-5.836236210011504222e-02
-5.670567671564159806e-02
-5.635868515954786662e-02
-5.852959191174954973e-02
-5.629747897998197553e-02
-5.699258652321156915e-02
-5.500474738058046958e-02
-5.244039753737331916e-02
-5.446230697018772382e-02
-5.335282022657027862e-02
-5.310947056303967628e-02
-5.127392391791538162e-02
-4.952715539882845963e-02
-4.980843718706661621e-02
-4.833762646959499643e-02
-4.654799104528947046e-02
-3.512407060559987609e-02
-1.947209383049951920e-02
-1.021829965558114159e-02
-4.333135758071541416e-03
9.201830200299397980e-03
3.215660946510628948e-02
4.018296689733910632e-02
3.227911724304102087e-02
2.855928418443419436e-02
2.364991288239851400e-02
-1.193067601445547271e-02
-6.656610662359756236e-02
-8.326116159249219439e-02
-7.006980867041960603e-02
-6.580220426402574874e-02
-6.674723939762026992e-02
-6.673080070502745986e-02
-6.407196333671384691e-02
-7.425918978438986184e-02
-1.089326670945146153e-01
-5.410098711330238452e-02
1.971347436912215811e-01
6.286978236277176446e-01
1.064861599554978389e+00
1.079671043820249698e+00
5.821835749984893837e-01
8.128702574598514752e-02
-1.009671291983520458e-01
-1.079338173269260431e-01
-1.058713846736544922e-01
-1.118113685167359539e-01
-1.142615457681926405e-01
-1.106232397108868615e-01
-1.005541046763419460e-01
-9.443700736953357378e-02
-8.835388733092218450e-02
-7.839967620377297219e-02
-7.077177728757230724e-02
-6.314890531649244854e-02
-5.763582293703028991e-02
-5.181034830626960602e-02
-4.672567764110179683e-02
-4.248347077488335427e-02
-3.469578236286737644e-02
-2.979676287663593146e-02
-2.290134446452157455e-02
-1.363552973463959608e-02
-4.160009284425211784e-03
9.489641083637987209e-03
2.156981746587634946e-02
3.683629200051196512e-02
5.644568356754765814e-02
7.557938142232868695e-02
9.923161347084316630e-02
1.229026653128768853e-01
1.488685280007450429e-01
1.749455272141089701e-01
1.929914451817833776e-01
2.077597629886342168e-01
2.112641969317425872e-01
1.951022714673787961e-01
1.577457047407154755e-01
1.066742307457049788e-01
5.285203284115624206e-02
-1.032586521229241243e-03
-4.051217885046163453e-02
-6.632150264881174484e-02
-8.370652474668290044e-02
-9.000235928330874158e-02
-9.528937318624663977e-02
-9.769481093754177337e-02
-9.308945442370551715e-02
-8.793099966895584485e-02
-8.696419482713668714e-02
-8.752980894978629189e-02
-8.176650257892965901e-02
-7.771375637605490438e-02
-7.746702476596475928e-02
-7.328793722453896820e-02
-7.186652029438825307e-02
-7.401041607587681426e-02
-7.605260273197768373e-02
-7.496364614042960728e-02
-7.249330446752393076e-02
-7.451308965026619269e-02
-7.469469365690876994e-02
-7.440932898237832827e-02
-7.467315877581795491e-02
-7.289770597933920016e-02
-7.429010051926848712e-02
-7.253879906187186977e-02
-7.058490367170966451e-02
-7.345371970209309265e-02
-7.372690359644300251e-02
-7.443288945837932269e-02
-7.196078093597627068e-02
-6.667692300940511463e-02
-6.698774959523562389e-02
-6.617998801892313598e-02
-6.381295774694747958e-02
-6.000297744052961874e-02
-5.773020403921627630e-02
-5.785361632696248146e-02
-5.484834401056087883e-02
-5.610170292435594924e-02
-5.779138149455821660e-02
-5.603179412566843681e-02
-5.703508009089509889e-02
-5.697152216991208107e-02
-5.667748676071816816e-02
-5.414955674749678816e-02
-4.991947912275858379e-02
-4.057259390525882331e-02
-2.323649161241391967e-02
-1.236279108335009910e-02
-7.215875872318419822e-03
8.814917012625005446e-03
3.240951459307062771e-02
4.005303054774329852e-02
2.790088342472887839e-02
2.204849655347816337e-02
9.848788313387932605e-03
-3.768401898396050304e-02
-8.114885306572712509e-02
-8.313154533387040468e-02
-7.124706434102830166e-02
-7.273214697691614272e-02
-7.743523359307206977e-02
-6.964207311269068890e-02
-6.347297436295579187e-02
-8.013423436816409506e-02
-1.029727435965056559e-01
-1.563740747019303282e-02
2.681199599197396366e-01
7.095761864223207871e-01
1.083844236413765483e+00
9.524607763789503245e-01
3.771046949046678032e-01
-3.969131378482038119e-02
-1.270501853593271890e-01
-1.040266300487458911e-01
-9.182944705390072571e-02
-9.711158777227890671e-02
-9.727301550384735707e-02
-9.455171042317288277e-02
-8.625139503317977296e-02
-7.601228687480182655e-02
-7.211015873309557789e-02
-6.410394416755554881e-02
-5.966623129094705130e-02
-5.849830827297011759e-02
-5.269844346941469221e-02
-4.784731894062343310e-02
-4.076395766772792500e-02
-3.659958608434431271e-02
-3.314201517358272842e-02
-2.602178113405114943e-02
-1.804758596227988218e-02
-7.789638404831761634e-03
1.502029177692646182e-03
1.532045668256224596e-02
2.905553832051329874e-02
4.127814162948319904e-02
6.029830561757550111e-02
8.132777858755080302e-02
1.055163062685949282e-01
1.289072056761076390e-01
1.507876378195733835e-01
1.736864167381354240e-01
1.902849729756977692e-01
2.034463821361846281e-01
2.051843634243502579e-01
1.852693676160891145e-01
1.469389476361385449e-01
9.187486584186575767e-02
3.498806518460445547e-02
-1.353693513895373561e-02
-5.296991812326287685e-02
-7.770692607060895873e-02
-9.096657819347336860e-02
-9.605762407390805446e-02
-9.916953796573423074e-02
-1.024781096592782270e-01
-9.980074429766566668e-02
-9.738542965180155275e-02
-9.332544203763015744e-02
-8.879507906577352450e-02
-8.833254125198908291e-02
-8.305614979606430748e-02
-8.017529498732560433e-02
-8.008552204413987852e-02
-7.786940304212441877e-02
-7.579883365222224445e-02
-7.171822129279285807e-02
-7.489158274381924052e-02
-7.879653577548950683e-02
-7.689083083140596520e-02
-7.765443025721383008e-02
-7.542304491606045824e-02
-7.227147509910757106e-02
-7.137854871766145803e-02
-7.216305958984182978e-02
-7.316318769131745225e-02
-7.044461184619157934e-02
-6.984916005809872763e-02
-7.052483207367837847e-02
-7.010389587991526505e-02
-6.857544540731845550e-02
-6.627270984531682951e-02
-6.792264274238438149e-02
-6.847894576386244492e-02
-6.635444650317276483e-02
-6.455332736698830842e-02
-6.334164563702561479e-02
-6.357517332083154060e-02
-5.918834821093851839e-02
-5.761325119017433188e-02
-6.266834447052038737e-02
-6.112624302381826358e-02
-5.629983140265492486e-02
-4.598288824655222262e-02
-2.986644083877972380e-02
-1.821748176976201866e-02
-1.072722340109871775e-02
4.372894332084416823e-03
2.523832249559235241e-02
3.104015698583782734e-02
2.489564298367027972e-02
2.251496266767408216e-02
1.214806810774629597e-02
-2.959355884368747996e-02
-7.833830140683950560e-02
-8.797599621811169612e-02
-7.329492917493317383e-02
-6.986989718777432412e-02
-7.495181492751815111e-02
-7.474002244560792874e-02
-7.108536501168261079e-02
-8.467870050438935925e-02
-1.140839716077631238e-01
-4.252076976777605793e-02
2.226481860033088234e-01
6.539413621349268180e-01
1.059859792537554579e+00
1.015961414074343150e+00
4.943637387718654574e-01
3.310567361491883326e-02
-1.124744666712216984e-01
-1.123507928977382914e-01
-1.094651165732284243e-01
-1.149841778010608079e-01
-1.148375892987017477e-01
-1.096334473249121616e-01
-9.884216505371284933e-02
-9.363421172296367001e-02
-9.094210425666748865e-02
-8.236783004706134392e-02
-7.482824595552327318e-02
-6.816036545885027775e-02
-6.400920325501054109e-02
-5.784095298951196645e-02
-5.075633263982312626e-02
-4.958008834543137233e-02
-4.571438996084294798e-02
-3.978248156529046176e-02
-2.963264839883563220e-02
-1.798610141360011683e-02
-8.834244795254596327e-03
5.502155062187841575e-03
1.882388571522749729e-02
3.459550072681038396e-02
5.618115251288479522e-02
7.687804589635065244e-02
9.860257433423978701e-02
1.217187325840613510e-01
1.495103893997289102e-01
1.741486075148102053e-01
1.893409046374834315e-01
2.006399113708915438e-01
1.984477999010686167e-01
1.787790373204279915e-01
1.401264650278745139e-01
8.403295053817040616e-02
2.870877057560046464e-02
-1.795825614386880459e-02
-5.221550440149676231e-02
-7.567428260329599199e-02
-8.919152479019210045e-02
-9.381092777110015823e-02
-9.877283925756724647e-02
-9.949044889811742287e-02
-9.664411512509071822e-02
-9.480626389483649830e-02
-9.137757375670012283e-02
-9.216232134445606627e-02
-9.095663508937254504e-02
-8.522001853764293866e-02
-8.350032334354823282e-02
-8.248512018797525547e-02
-8.242261801468953042e-02
-7.967284858209995602e-02
-7.729129721435226696e-02
-7.868226652240574437e-02
-7.608743642187520972e-02
-7.649501985007793603e-02
-7.752644730514492155e-02
-7.732612234315473787e-02
-7.815061373004378309e-02
-7.599378700284951937e-02
-7.758740952838229232e-02
-7.732004714763868192e-02
-7.523163211286919283e-02
-7.668812807817695920e-02
-7.376316669390513281e-02
-7.264357009796262865e-02
-7.176247901684278119e-02
-6.913797358279394345e-02
-6.941959598698707601e-02
-6.783774351347855724e-02
-6.642923957721100225e-02
-6.271994110195586170e-02
-6.033555060340383552e-02
-6.466749999108638292e-02
-6.379451998053235762e-02
-5.959582006248992370e-02
-5.921378420125356090e-02
-6.045999133329398728e-02
-6.011807562511965047e-02
-5.734705977735792687e-02
-5.729741161906509728e-02
-4.969162195743757199e-02
-3.071531712802152980e-02
-1.635724577846492736e-02
-1.138674266623727026e-02
-1.400980284071682647e-03
2.167573857923804637e-02
3.292888912208108421e-02
2.828166116527046706e-02
2.323714978725150218e-02
1.556538119813496990e-02
-7.367746622029562945e-03
-5.784988426989289695e-02
-9.159461418121793430e-02
-8.258146558511533786e-02
-7.509112687555036247e-02
-7.712975990542689231e-02
-7.474273145021968767e-02
-7.230753764510482184e-02
-7.571654234412239504e-02
-1.049263531854611187e-01
-1.006860284108858361e-01
6.684116851411213422e-02
4.357213715817927491e-01
9.136698204752763397e-01
1.144139453674244855e+00
8.126693470699350996e-01
2.438650901108465607e-01
-6.601128141123424609e-02
-1.146245144162278407e-01
-1.107406375310090035e-01
-1.163596240059104475e-01
-1.202125237672099917e-01
-1.180559846021725090e-01
-1.103994625725378403e-01
-1.033397982474055232e-01
-9.593963668972740888e-02
-9.126734124472596354e-02
-8.714189987324004461e-02
-7.891190864803392102e-02
-7.149887362936438451e-02
-6.237876408102346892e-02
-5.655500368352830987e-02
-5.576158733506839105e-02
-4.974345619157156950e-02
-4.328551384500757548e-02
-3.498285509769067519e-02
-2.334051328543456857e-02
-1.454730029579567353e-02
-3.576160592263084165e-03
1.045702575403126451e-02
2.620385477859013545e-02
4.330505380592864634e-02
6.348167335157049729e-02
8.857667349200511187e-02
1.110275370181360854e-01
1.353134976898008879e-01
1.592440484424247071e-01
1.764079844186207946e-01
1.937670599629552903e-01
2.010912526358810126e-01
1.884495615042294236e-01
1.583156134330762077e-01
1.136240748834259073e-01
6.056207457754889112e-02
5.808959388994408557e-03
-3.797718616094734184e-02
-6.704815869335170597e-02
-8.596549714844904655e-02
-9.366328471949736389e-02
-9.803233776127599775e-02
-9.911430987791473857e-02
-9.412332911043434780e-02
-9.087686033883284054e-02
-8.878969359145671980e-02
-8.652513892681769347e-02
-8.109429137706064550e-02
-7.725323937085323833e-02
-7.878911026481660862e-02
-7.697350525910061358e-02
-7.618150107251016323e-02
-7.625343158307808233e-02
-7.257990375346688727e-02
-7.087891479497122893e-02
-6.971502883727730138e-02
-7.116645518129476045e-02
-7.430183661370991233e-02
-7.434928353953705604e-02
-7.468348561157843457e-02
-7.339160814400035038e-02
-7.348769250153500132e-02
-7.162262495854120059e-02
-6.908073895451564972e-02
-7.064385551944628305e-02
-6.743412297217768470e-02
-6.528936592191181276e-02
-6.590087399759890496e-02
-6.557797335425225027e-02
-6.760549610950006283e-02
-6.553946060503090809e-02
-6.461675878489377134e-02
-6.604717915849898924e-02
-6.395838752090225732e-02
-6.235884272592317340e-02
-5.916178960938268949e-02
-5.766143092290523797e-02
-5.802937535986074646e-02
-5.972178498358300669e-02
-6.097570992645959254e-02
-5.511577902966260933e-02
-5.250230210468923020e-02
-4.808246487516461970e-02
-3.398285437653223579e-02
-1.821746850146442956e-02
-9.919301094577377340e-03
-4.953125773827157796e-03
1.794076761598401015e-02
3.861162824402144395e-02
3.486894242655979442e-02
2.697910167283900165e-02
2.282736181882664972e-02
-3.693622651365920107e-03
-5.632779835229161786e-02
-8.455549510724830187e-02
-7.768434947682530123e-02
-6.891841771902493252e-02
-6.530845656622934203e-02
-6.515533159935386898e-02
-6.434752164424989429e-02
-6.482048407427788705e-02
-8.879003986636552215e-02
-8.600478093610081087e-02
7.150251930311121717e-02
4.234354422738227375e-01
8.889429207438053204e-01
1.114881678086446781e+00
7.589525650005980451e-01
1.792422369480842215e-01
-1.009307215636769534e-01
-1.217010735450297088e-01
-1.005940494383551348e-01
-9.751520885145424644e-02
-1.050599484241200171e-01
-1.042868005414152865e-01
-9.288205652664753564e-02
-8.752064257034353201e-02
-8.206147848201744699e-02
-7.437811151495196671e-02
-6.849147741690057856e-02
-6.123750535069060613e-02
-5.928383776034854002e-02
-5.638769006802733103e-02
-4.915397829940071350e-02
-4.399544205618463599e-02
-3.720280300955830510e-02
-3.127367722982100223e-02
-2.192869969803961858e-02
-1.262211599284269840e-02
-7.733128452394022988e-03
5.265743279497809258e-03
1.938094668971973578e-02
3.123287699586722865e-02
4.800479703720787056e-02
6.710933793076982734e-02
9.015644649245341258e-02
1.098637367555167776e-01
1.282361847702101487e-01
1.503929226887281423e-01
1.707042111837937526e-01
1.895791315482595607e-01
1.967972631568676301e-01
1.857098858920120665e-01
1.541238476966726445e-01
1.048877235226401833e-01
5.132684126316611195e-02
-3.347545513344458469e-03
-4.596442506191281141e-02
-7.345385740725156321e-02
-9.264631198624062591e-02
-9.866672724303938991e-02
-1.031807693049835023e-01
-1.060615002887343450e-01
-1.015469578472969342e-01
-9.990080423806037280e-02
-9.855639110253476554e-02
-9.544043881810462815e-02
-9.135330373291460082e-02
-9.002816017349526967e-02
-9.078493968109616064e-02
-8.640823309643413941e-02
-8.182502861983284581e-02
-7.834242790528717082e-02
-7.678557019057558053e-02
-7.668613947087687954e-02
-7.502825231140967943e-02
-7.590827819636342122e-02
-7.493096024891204854e-02
-7.616698281038945806e-02
-8.287308979873062031e-02
-8.172633240928051102e-02
-7.797467374068928203e-02
-7.740363225340554654e-02
-7.703058568424099584e-02
-7.941866993735169356e-02
-7.904293961573190253e-02
-7.738666127374271841e-02
-7.486920422108110651e-02
-7.283592195906596345e-02
-7.543195494816121172e-02
-7.611148499304716541e-02
-7.509041047117448464e-02
-7.212391791969423316e-02
-6.898897064996074857e-02
-6.820050249766475281e-02
-6.630746314839849886e-02
-6.650618920936375578e-02
-6.583395324750215827e-02
-6.228842424681618056e-02
-5.164800432233356692e-02
-3.203462205100048726e-02
-2.025214148818084425e-02
-1.353605734327615988e-02
4.654029428253415868e-03
2.067139579387909654e-02
2.136871300302302379e-02
1.169626485529421701e-02
1.050917057686469140e-02
1.916509704291141517e-04
-5.078127910097932768e-02
-9.082073795917389170e-02
-8.845051479694326924e-02
-7.840002161789405566e-02
-7.624163828464686210e-02
-7.799831852900462881e-02
-7.397973513351095709e-02
-7.313821216457302987e-02
-9.205079125723582278e-02
-1.094712213025387099e-01
-1.084348877747575227e-02
2.833994040818272331e-01
7.227124341781420158e-01
1.071651663837187796e+00
9.210089691547111990e-01
3.621926242842128385e-01
-3.045257924617129214e-02
-1.145602396241852533e-01
-1.064233061050077062e-01
-1.050326868967946387e-01
-1.123184937290580554e-01
-1.119969147768975770e-01
-1.073698502277945499e-01
-1.016316903170966512e-01
-9.129758354675654441e-02
-8.617456285183722198e-02
-7.991583188011797123e-02
-7.283600867378257904e-02
-6.766502535247533034e-02
-6.229834917582972864e-02
-5.939515088961897643e-02
-5.345825024299535877e-02
-4.888663896640723511e-02
-4.238660360566678248e-02
-3.326476176617419039e-02
-2.737017339315972117e-02
-1.562073191724795175e-02
-4.123394694072145955e-03
6.232656573420662129e-03
2.154443113541109484e-02
3.782232635815578614e-02
6.030057568687921532e-02
8.054348155304075219e-02
1.006369893294561807e-01
1.261248080996356102e-01
1.470442290626292892e-01
1.677036608299847797e-01
1.856790433125010131e-01
1.929313472962211895e-01
1.870717890718289200e-01
1.621208316781929948e-01
1.177942437941266046e-01
5.936106097852322794e-02
5.512933974213025598e-03
-3.454873356390750216e-02
-6.518330241137514081e-02
-8.307755831055751994e-02
-9.312305530627391914e-02
-1.009675989752312902e-01
-1.040068220476224881e-01
-1.025770597418699942e-01
-9.824387403666293150e-02
-9.672237502554451027e-02
-9.658408766660141198e-02
-9.572407039595252909e-02
-9.435955797061337802e-02
-8.998472714889979573e-02
-8.903463776346914882e-02
-8.743740916766706839e-02
-8.285325854922516442e-02
-8.228894398872321769e-02
-7.900366726537817741e-02
-7.592650993962204997e-02
-7.578543008022285699e-02
-7.490264072158751840e-02
-7.510211757092591367e-02
-7.192376583404970491e-02
-7.200968993964575182e-02
-7.541189730660008417e-02
-7.428584229724791155e-02
-7.510469488651959347e-02
-7.558535458218490488e-02
-7.494695716864051283e-02
-7.210478697558739269e-02
-6.991785989486533348e-02
-7.230558858834094937e-02
-6.858529964733958706e-02
-6.658871925268378122e-02
-6.711915267106935423e-02
-6.389129551381181327e-02
-6.608855466942591128e-02
-6.648359748607994557e-02
-6.498297980671528806e-02
-6.376025487112899071e-02
-6.048314447592201271e-02
-6.047456477080225684e-02
-5.572312960336450044e-02
-5.339892526034847875e-02
-5.594024622354495935e-02
-5.352463801104989649e-02
-4.755915282419098666e-02
-3.183025532072040337e-02
-1.552935186688553584e-02
-8.186540846402369162e-03
-4.357385553853144848e-03
1.092235480880675291e-02
3.418640707570648474e-02
3.918335413159929059e-02
3.070378878605386705e-02
2.737790206348748867e-02
1.687809213282459933e-02
-2.649943129395004870e-02
-7.305026112687515449e-02
-7.771825440794939699e-02
-6.756632087464806147e-02
-6.716438119791692807e-02
-6.403327929585936329e-02
-6.134891676984941672e-02
-6.204593759741505038e-02
-7.663335824503647586e-02
-1.024289710699458067e-01
-2.516230628818263981e-02
2.452302322801148959e-01
6.843055194060959634e-01
1.090358976371209154e+00
1.030149386436852277e+00
4.928366679221363178e-01
2.957403977220095584e-02
-1.076054170011777195e-01
-1.048267439281473784e-01
-1.050644229338647123e-01
-1.102329562523813727e-01
-1.113798062695986052e-01
-1.080598586647283643e-01
-1.011770899620852149e-01
-9.299379174254646108e-02
-8.433325013572628981e-02
-7.953524836816577848e-02
-7.332178712014679467e-02
-6.696340375924110522e-02
-6.401852644688184324e-02
-5.768093608772977693e-02
-5.281416867348495692e-02
-4.894201238923420738e-02
-4.258189359073830116e-02
-3.807012042370092053e-02
-2.993104879593466716e-02
-2.104731697949191807e-02
-1.227219441568510108e-02
1.948789884064191461e-03
1.637198003502570581e-02
3.156599850756698633e-02
5.172460950250760275e-02
7.661853727791555213e-02
1.001966143652194136e-01
1.219190648717045633e-01
1.465070969872337148e-01
1.676300388177645040e-01
1.866611134147805884e-01
2.007050449838599926e-01
1.973844883974878450e-01
1.760134012784165258e-01
1.341101070077739821e-01
7.992627015607928209e-02
2.608181985797824662e-02
-2.300915027412612363e-02
-5.684239254152308185e-02
-8.016313251733982181e-02
-9.413844023208665923e-02
-9.673677345641459868e-02
-9.978523031894448447e-02
-9.943562255448561149e-02
-9.618704429063551498e-02
-9.346778885554574146e-02
-9.015134137107680412e-02
-8.831290520719346782e-02
-8.583282752805106164e-02
-8.600560519846849050e-02
-8.290131404909772961e-02
-7.892719657042640558e-02
-8.243968249513165814e-02
-8.099091734687204058e-02
-7.738656066721727456e-02
-7.638600704485737358e-02
-7.450375640546223754e-02
-7.536446645449290660e-02
-7.581255224531245618e-02
-7.774418464601123846e-02
-7.690230345717785632e-02
-7.148745301916324679e-02
-7.265615487798356142e-02
-7.529834177401105444e-02
-7.787474120341320027e-02
-7.737867263450554089e-02
-7.202387007251039031e-02
-7.085300845606723463e-02
-7.020211924855065955e-02
-7.026978959318284923e-02
-6.928011012225988863e-02
-6.591812711936544111e-02
-6.705128309281076227e-02
-6.505942881935432298e-02
-6.346010439132476755e-02
-6.463774943385838800e-02
-6.321856616950437269e-02
-6.243510095139879340e-02
-5.965577557924070518e-02
-5.835808228760558380e-02
-5.939821473497008952e-02
-5.971113761248350582e-02
-6.053131778532582635e-02
-5.503206886802994302e-02
-5.194676514214337237e-02
-5.209351361726314439e-02
-4.900220156060888094e-02
-4.441528556795201754e-02
-3.029039348757520123e-02
-1.368829141721440192e-02
-6.962687513443215417e-03
1.735027498722988351e-03
2.196026221910519355e-02
4.033979373024342008e-02
3.611300364306505722e-02
2.511312390714673382e-02
2.313308276744971761e-02
-7.483054005081566512e-03
-5.824265895077414268e-02
-7.768835184670860872e-02
-7.297134076335888564e-02
-6.903318678856637525e-02
-7.058912324085518664e-02
-6.998195569353431178e-02
-6.750834738566441340e-02
-7.190338802527054818e-02
-9.847559226764286688e-02
-7.961999496063565385e-02
1.146606698115416600e-01
4.962211095944554784e-01
9.615830159714475744e-01
1.127568599308299335e+00
7.048017292689731095e-01
1.371278170014576803e-01
-1.073053336259778556e-01
-1.227136152305989270e-01
-1.064348903561619236e-01
-1.100163242954372428e-01
-1.171587138633327502e-01
-1.128167339629318200e-01
-1.022791473102888926e-01
-9.442005815156646886e-02
-9.041300275427832656e-02
-8.520097017207388379e-02
-7.966652602133894590e-02
-7.439072873636463912e-02
-6.753067848631937042e-02
-6.211366967685960638e-02
-5.380726831968257046e-02
-4.670783658771248542e-02
-4.144055671513192929e-02
-3.261061681196380374e-02
-2.102062411908614536e-02
-9.693196597817588245e-03
-4.136136411973003781e-03
4.771293792521115809e-03
2.092754810334385152e-02
3.685968912140718395e-02
5.522388913324685622e-02
7.062524712732588805e-02
9.021028139996269124e-02
1.156558523575092895e-01
1.332265888359114026e-01
1.535684451394947747e-01
1.733729564529050970e-01
1.836243525812155386e-01
1.902986596469062042e-01
1.791797951415536883e-01
1.468561903973436278e-01
9.774500522141940650e-02
3.909361446453363254e-02
-1.033479672938026478e-02
-4.777942453957680080e-02
-7.588102621392414648e-02
-9.519072593312369324e-02
-1.045784508568059490e-01
-1.071357084572422819e-01
-1.102038820201932251e-01
-1.065280853053120896e-01
-1.021792233696705438e-01
-1.015502399230911873e-01
-9.820962844233521727e-02
-9.507246401863397867e-02
-8.823180202609476330e-02
-8.814651504317840003e-02
-9.096609727260507317e-02
-8.162551124897932109e-02
-7.762622749056526106e-02
-7.628733983500468607e-02
-7.292619388253722412e-02
-7.197164960386849553e-02
-7.010809569449541478e-02
-7.453487976263493964e-02
-7.462599592072287347e-02
-6.979817854053092796e-02
-6.995044891473362059e-02
-6.931167608989784179e-02
-7.295318909126961848e-02
-7.414220488357899097e-02
-6.825968920700704878e-02
-6.625664502378104947e-02
-6.735723554816719361e-02
-6.794313481247478415e-02
-6.527311311960154461e-02
-6.508582395205914084e-02
-6.538458980433535517e-02
-6.388537960514566183e-02
-6.411281181403950813e-02
-6.239290771256222196e-02
-6.302177315495163801e-02
-6.112702928637153005e-02
-5.791083086241136796e-02
-5.726048276386547231e-02
-5.329966929528692776e-02
-5.402183429424567418e-02
-5.437317184594201575e-02
-4.842220313874334714e-02
-4.169949115886605745e-02
-3.036410136547943589e-02
-2.081984382990960392e-02
-1.382949609508617173e-02
7.030576190915145858e-03
2.417313202652240922e-02
2.636075644051764921e-02
2.204202905604365700e-02
1.855163467883266804e-02
3.687965878976298077e-03
-4.274087237153868790e-02
-7.561264613228944886e-02
-7.352898368433462284e-02
-7.009751840575527415e-02
-6.845601497238187894e-02
-6.700597095347217425e-02
-6.417716329790397467e-02
-6.222680427326409552e-02
-7.998170874280546849e-02
-9.375234637195734022e-02
1.263324950478563607e-02
2.982898746646182597e-01
7.169405139844695629e-01
1.038585916471914672e+00
8.532947199972227281e-01
2.956495389854280620e-01
-5.907102732871744033e-02
-1.169526812440867120e-01
-9.795085040429110657e-02
-9.083001020975001172e-02
-9.669287920421602844e-02
-9.777521262951555103e-02
-9.186155547504126773e-02
-8.313613128791332019e-02
-7.516594316269731291e-02
-7.198549904881333672e-02
-6.737197445345638469e-02
-6.374797369942457326e-02
-5.626761682679141258e-02
-4.512443287455532304e-02
-4.175437042967684864e-02
-3.721900173802249884e-02
-3.262568124960540245e-02
-2.817648080019725249e-02
-2.059290765886652441e-02
-1.513046852728133253e-02
-5.403890708225920353e-03
6.819220357605528492e-03
1.776639917989295339e-02
3.031210610026605079e-02
4.442434115318381893e-02
6.435427928494628913e-02
8.433035151946767505e-02
1.037620602994983598e-01
1.252015193596869025e-01
1.440027502624511291e-01
1.657779093601629283e-01
1.861133052518810782e-01
1.951415739769596369e-01
1.896360695356587855e-01
1.650808519396577412e-01
1.255843459301203280e-01
7.236875317712258837e-02
1.795041946434295863e-02
-2.567306360140587940e-02
-6.175396502708122015e-02
-8.178877868630102244e-02
-9.042076381354607895e-02
-9.538889592995748734e-02
-9.593687568915115760e-02
-9.815460711866412502e-02
-9.404086782928183785e-02
-8.872802801147766649e-02
-8.753034362350800568e-02
-8.349457880331717652e-02
-7.975974221961136534e-02
-7.581502303593189163e-02
-7.434881161783027381e-02
-7.215448178502913146e-02
-6.734993364313655861e-02
-6.725970307226372680e-02
-6.716569919044655668e-02
-6.596981655032432834e-02
-6.341469908987758253e-02
-6.185151640627553626e-02
-6.442570130067770684e-02
-6.235962757661382000e-02
-6.062653704227263796e-02
-6.056565217908421728e-02
-5.743330342421473778e-02
-5.895115681389776624e-02
-5.949395837185970232e-02
-5.862438343550377406e-02
-5.854083263468680409e-02
-5.491484675227029100e-02
-5.476120223276960408e-02
-5.417040659617361475e-02
-5.480390270142248416e-02
-5.871519184727772012e-02
-5.472422252772732310e-02
-4.979844811140866218e-02
-4.819218296637588217e-02
-4.904463641354158548e-02
-4.869996337650970425e-02
-4.460916917194680115e-02
-4.637311572618153105e-02
-4.545163235423347464e-02
-4.228466525788054931e-02
-4.344072605420775529e-02
-4.139096527962979333e-02
-4.020714493925869187e-02
-3.181899706303545350e-02
-1.581814176103772326e-02
-2.352382482187216454e-03
5.582888796886167557e-03
1.355353102015206812e-02
3.488487173615153342e-02
4.645821386962790955e-02
3.989057260184163123e-02
3.495130075188673108e-02
3.203103675830992064e-02
7.344570114652039516e-03
-4.621215964450725577e-02
-7.082567630495965882e-02
-5.967017628565556703e-02
-5.647630611694920422e-02
-5.588702591562048211e-02
-5.374482608532780287e-02
-5.499516425301492067e-02
-6.209420797426033062e-02
-9.111099908460602859e-02
-7.931689947126245588e-02
9.039909951074548422e-02
4.400546006968187318e-01
8.912901327543059082e-01
1.099209774981104948e+00
7.477119400465865873e-01
1.959226856838208464e-01
-6.944745030369552097e-02
-9.863094264813546119e-02
-9.302397629627420783e-02
-9.362979023080097996e-02
-9.461779506587057742e-02
-9.174038214041728423e-02
-8.434853317496709968e-02
-8.051926864628791702e-02
-7.243853892706737796e-02
-6.466705011135166770e-02
-6.114893476603663891e-02
-5.401280929263636843e-02
-4.780830516665410257e-02
-4.167255956670933015e-02
-3.863130801733863362e-02
-3.578356942854371558e-02
-2.762786849382578222e-02
-2.106450655003011541e-02
-1.144882066936537407e-02
-2.820461315955074405e-03
2.274727972722777585e-03
1.123752095708138547e-02
2.548575728445724720e-02
4.416026997543048838e-02
6.009317357949664484e-02
7.840525541529923259e-02
9.861274222865162864e-02
1.154561088554946074e-01
1.393995725993134593e-01
1.633018340811336899e-01
1.821811299943759677e-01
1.972834615650948531e-01
1.986824559895180864e-01
1.909382913561348538e-01
1.663959052427233520e-01
1.167141083429468207e-01
6.118173750891568036e-02
1.110155328758569322e-02
-2.841731000717473074e-02
-5.706137798377154680e-02
-7.588658875755427413e-02
-8.346105931541977774e-02
-8.704665384086368585e-02
-8.584584722246993427e-02
-8.409379057682726810e-02
-8.402929693433627834e-02
-8.249952572238206105e-02
-8.290750869122856526e-02
-7.875743568397637617e-02
-7.364517203756561214e-02
-7.037920115543098987e-02
-6.651581469614707698e-02
-6.884665499457597038e-02
-6.848602419182014955e-02
-6.515852071544500634e-02
-6.463774504965974499e-02
-6.185815249462295329e-02
-6.381832790862658478e-02
-6.517490635260687892e-02
-6.177320092712146327e-02
-6.181544017241732969e-02
-6.196309397353903098e-02
-6.343993733470980334e-02
-6.299816074624521589e-02
-6.154288935579010217e-02
-6.172292337925804756e-02
-5.946454610487399844e-02
-6.052708139557695655e-02
-5.849173296339798406e-02
-5.457227048711708189e-02
-5.586320509911179427e-02
-5.553887650490764438e-02
-5.515484983480817283e-02
-5.184870736733709212e-02
-4.897007041530017368e-02
-4.990714208853233580e-02
-4.609705011158284765e-02
-4.414142070279637037e-02
-4.492147018454074880e-02
-4.267785325003741609e-02
-4.086050835597055536e-02
-4.289405644402832785e-02
-4.674616017012187680e-02
-4.521507820416728607e-02
-4.365905394468764383e-02
-4.522838972424705895e-02
-4.586168788191009871e-02
-4.502208243390439651e-02
-4.035137967962498795e-02
-3.853391056371424650e-02
-3.296811648944979189e-02
-1.722959952975072762e-02
-2.428568706096116345e-03
7.920591866629484584e-03
1.487690504988787091e-02
3.263880531487530628e-02
5.107930996767393733e-02
5.017260079098136150e-02
4.365572460089512524e-02
4.112579882876993970e-02
2.340191188381439760e-02
-2.879305047713188320e-02
-6.804571210663072633e-02
-6.112439850439817246e-02
-5.113373513678022564e-02
-5.251878615302599945e-02
-5.307535160316953493e-02
-5.171507740809169751e-02
-5.273567901863811941e-02
-7.870391521752316544e-02
-8.787489679744225901e-02
4.368539068196877068e-02
3.666842636367288466e-01
8.335795156071977852e-01
1.141315075740298779e+00
8.982090647017211271e-01
3.260615983596266698e-01
-3.174690585117383862e-02
-1.023671173484250185e-01
-9.814308995670753544e-02
-9.978960486725972634e-02
-1.013173392613773427e-01
-1.004581982950188412e-01
-9.263025012579984008e-02
-8.731546630827013988e-02
-8.313395260813263854e-02
-7.511067719128217135e-02
-7.127660474273841973e-02
-6.483935253409391086e-02
-5.562386661635432272e-02
-4.873785176619986614e-02
-4.188640606446628056e-02
-4.023448955662774912e-02
-3.479479664204110367e-02
-2.665847786946060061e-02
-2.189302141201150687e-02
-1.354910200645605828e-02
-5.569985322030134717e-03
5.256465664565810464e-03
1.940003929248438827e-02
3.433840740008860942e-02
5.216879371696930834e-02
6.814335909334484631e-02
8.767544181233788425e-02
1.113982016564537408e-01
1.343978852334385132e-01
1.574435952057571531e-01
1.783883354568028823e-01
1.964170724465003348e-01
2.043275585702603314e-01
1.981356765275344989e-01
1.772754936627973510e-01
1.356166494867810379e-01
8.164063988109464265e-02
2.738995818336621701e-02
-1.890430814656932426e-02
-5.256156651077233122e-02
-7.678615152882387052e-02
-8.985092892851800905e-02
-9.470064777382281029e-02
-9.427094274002609242e-02
-9.185261155007745648e-02
-8.966584461810331308e-02
-8.491026534905729561e-02
-8.500461582660071014e-02
-8.651531399632725328e-02
-8.104592168524198115e-02
-7.826036866056727825e-02
-7.723427589305223440e-02
-7.662251731066260785e-02
-7.598698985057061872e-02
-7.291600223501470968e-02
-7.460435189424584335e-02
-7.531008481488092599e-02
-7.548290129919660307e-02
-7.867890963997625775e-02
-7.789361664856001011e-02
-7.545150855231341769e-02
-7.176468431213953170e-02
-7.031771065017551614e-02
-7.376953323358202697e-02
-7.646272864167988348e-02
-7.614186360447458557e-02
-7.262033840318903033e-02
-7.202076519113591313e-02
-7.195358844916650842e-02
-6.794621905211833957e-02
-6.645073121996201981e-02
-6.526386801081435207e-02
-6.468111553238126143e-02
-6.391503670524661951e-02
-6.307507422760087745e-02
-6.655767269876866621e-02
-6.619298001042039914e-02
-6.338623145899335842e-02
-6.104145968280216134e-02
-5.690349520833213465e-02
-5.697882597216508138e-02
-5.729794494031421881e-02
-5.582262021119935302e-02
-5.380077255129547820e-02
-5.191264405960879791e-02
-5.660382438931044202e-02
-5.626137467237481149e-02
-5.038255170558125773e-02
-4.952038637721400960e-02
-4.888147486132086994e-02
-4.899193208954753104e-02
-4.551496098237814425e-02
-3.398160809610861061e-02
-2.068644311204117028e-02
-5.579615351723275080e-03
2.380079521282673499e-03
1.568262630398786078e-02
3.258414535517769467e-02
3.478660138949752484e-02
3.243077689787712825e-02
3.024200673542207229e-02
1.399214481979729231e-02
-3.587567422429324693e-02
-7.595927039471769837e-02
-7.166056555090216662e-02
-6.452849827303218377e-02
-6.138541548149167859e-02
-5.632563884051880465e-02
-5.599755015586952572e-02
-5.861937827187665984e-02
-7.925679079090580670e-02
-8.998027071131145527e-02
2.776720747547101881e-02
3.296446588866574490e-01
7.673037392758407238e-01
1.092524831346451064e+00
8.970505573846836445e-01
3.232987401709848108e-01
-5.145898851001584617e-02
-1.149194910710115008e-01
-9.649110222879238308e-02
-9.341953398848414081e-02
-9.566327838543381423e-02
-9.140916987011923900e-02
-8.614441569921854613e-02
-8.703413520492771227e-02
-8.296409782827468549e-02
-7.429743187253992631e-02
-6.893501169955855434e-02
-6.374323452284517966e-02
-5.956111414349668509e-02
-5.357386063497851514e-02
-4.878122684151135063e-02
-4.361734359138740719e-02
-3.564513671351578900e-02
-3.305509426907011356e-02
-2.630165949712655327e-02
-1.601308775228203751e-02
-7.537006913652236073e-03
3.495477595542638080e-03
1.479951622126400926e-02
3.020873662956946246e-02
4.566230640745491676e-02
6.082913008328610927e-02
8.165340915089386309e-02
1.022480482216851505e-01
1.262903709450815259e-01
1.514449965895897920e-01
1.701610281708939021e-01
1.845043077404733833e-01
1.907370581396150011e-01
1.894325154073968065e-01
1.749387674485234079e-01
1.374958959754715715e-01
8.398343025050182542e-02
2.744906738881131708e-02
-1.850395519746030060e-02
-5.250776616036097189e-02
-7.691488723095152302e-02
-9.071615755189565977e-02
-1.005558914161027162e-01
-1.043240927920343203e-01
-1.025241141670838046e-01
-9.965012105954464128e-02
-9.626457121956601137e-02
-9.542303117733523521e-02
-8.955522797316256556e-02
-8.575457000713536393e-02
-8.786755225960955762e-02
-8.402285113636681624e-02
-8.189292119920843493e-02
-8.148853758036195272e-02
-7.821992720367437757e-02
-7.483840150568348004e-02
-7.440844999071803689e-02
-7.733381907759365181e-02
-7.695774662462678828e-02
-7.640372174801471350e-02
-7.690029900923472939e-02
-7.472878469830486481e-02
-7.533626710392224424e-02
-7.642941118896751096e-02
-7.535267854063011639e-02
-7.492388593538548691e-02
-7.485305632955599475e-02
-7.517354725449991448e-02
-7.129732541537973922e-02
-6.990173979863510689e-02
-7.095638441361423743e-02
-6.664969657070836384e-02
-6.692694631150088169e-02
-6.563741111219709157e-02
-6.256809025119823564e-02
-6.408376093202813872e-02
-6.422602729794002485e-02
-6.520933951542029483e-02
-6.397496154378455591e-02
-6.266635186083006903e-02
-6.199295118910291835e-02
-5.909122696804558483e-02
-6.008114518941596455e-02
-5.775899525514954086e-02
-5.381054029352495827e-02
-5.242242477524280964e-02
-4.786313241641507177e-02
-4.288487840315629435e-02
-3.023280393915406261e-02
-1.431741799114373895e-02
-1.074192019040037804e-02
-2.506543706753698933e-03
2.053755324979832791e-02
3.730436862077124438e-02
3.313890829825193174e-02
2.349941038719936467e-02
2.348410330500057611e-02
-1.085636429751042110e-03
-5.197281245946244049e-02
-7.775931021092430395e-02
-7.278925393602375671e-02
-6.337065713424933078e-02
-6.197414288517654607e-02
-6.180103264013658837e-02
-6.012256173727051345e-02
-6.767786497102952492e-02
-9.405733362378256024e-02
-7.303697125971363169e-02
1.130433835418459543e-01
4.742416982647185697e-01
9.173708267202091982e-01
1.090459679427651762e+00
7.034827953849290827e-01
1.586875147029755961e-01
-8.325873075014028624e-02
-1.067418835915527053e-01
-9.945542242016543188e-02
-1.021094317279752223e-01
-1.042780058442225599e-01
-1.004915548906186590e-01
-9.439006893190217407e-02
-8.636857374874841453e-02
-7.984713961252738745e-02
-7.368681977878965839e-02
-6.594788697996135929e-02
-5.914374105029483047e-02
-5.492484822816574852e-02
-5.708254105529000921e-02
-5.434409193841283070e-02
-4.449937924173986981e-02
-3.630032518257456792e-02
-2.992379360195936491e-02
-2.575070039531712762e-02
-1.637945530688972307e-02
-5.985538765117681334e-03
2.266279760410922113e-03
1.601919215544807956e-02
2.911960026456891434e-02
4.556205781357537676e-02
6.644523512698820300e-02
8.727828986650934540e-02
1.104649615968454762e-01
1.309509916530732787e-01
1.540683687178373840e-01
1.785007746232704640e-01
1.923004037364592078e-01
1.965119681593155421e-01
1.873846348419080099e-01
1.628640180123897552e-01
1.192464104044746176e-01
6.298449870264444250e-02
1.332938786119446800e-02
-2.964993475030891154e-02
-6.216703851791817448e-02
-8.067416950497631467e-02
-8.922857156449645610e-02
-9.042913969739779789e-02
-9.453627891278550133e-02
-9.657791465342224768e-02
-9.490012219664586968e-02
-9.417829950947614881e-02
-9.115038676804776419e-02
-8.867597157744933067e-02
-8.346231179116064824e-02
-8.102622858669726591e-02
-8.108758619158575043e-02
-7.363552813415354115e-02
-7.018886124399274784e-02
-7.078448387004623865e-02
-7.079244065087435256e-02
-7.233901349540443337e-02
-7.027315526055387396e-02
-6.898902078790089543e-02
-6.894648860508845178e-02
-6.869084208468312358e-02
-6.958086625379443502e-02
-6.731396859312376024e-02
-6.671706403901875304e-02
-6.881469920784413774e-02
-7.012994132928317137e-02
-6.967860287816013409e-02
-6.796163493054033222e-02
-6.815173984604500079e-02
-6.529654314431267148e-02
-6.346934834355348609e-02
-6.296239081165343199e-02
-5.863310716035791126e-02
-5.939843847931110254e-02
-5.951477775781138096e-02
-5.717500073046865444e-02
-5.688204132397917112e-02
-5.570768924418093709e-02
-5.761518509458070370e-02
-5.546417759638194028e-02
-5.265479063667574677e-02
-5.338973247077131307e-02
-5.069980866842169198e-02
-5.119397815298337012e-02
-5.094248777776641535e-02
-4.790648808699807248e-02
-4.670685685412818977e-02
-4.594630893373342906e-02
-4.680112893014228698e-02
-4.330788072774315045e-02
-3.770686747012705342e-02
-2.842763321256993811e-02
-9.100405217060422366e-03
1.128303251636544489e-03
6.770538394420582556e-03
2.638214672681125222e-02
4.359218695625809159e-02
4.648221251635121370e-02
3.759982842272963088e-02
3.134877033263150370e-02
1.554427715650474363e-02
-3.548985926079143566e-02
-7.461612639487640031e-02
-7.345001156255741293e-02
-6.415874905523631655e-02
-6.160790336992849614e-02
-6.170627397589163732e-02
-5.931275110610437218e-02
-6.484822453505005579e-02
-9.170028966960233618e-02
-9.098899695222301132e-02
5.804199086034877303e-02
4.038891146686902633e-01
8.737335761193885109e-01
1.147951519194620129e+00
8.603651249418675651e-01
2.818711494893931802e-01
-5.044470529862755959e-02
-1.104224198873761109e-01
-1.029675122797509002e-01
-1.032349701076259729e-01
-1.100117357075871410e-01
-1.081492069106781140e-01
-9.992688489401288510e-02
-9.126110271486954917e-02
-8.624163975870624554e-02
-8.325758555639102554e-02
-7.580243349534528108e-02
-7.088961578461809576e-02
-6.507215552921383206e-02
-5.797194000060649360e-02
-5.282972715909128869e-02
-4.598575131753860484e-02
-4.119944857287556605e-02
-3.355694183880893883e-02
-2.494406864602165264e-02
-2.014186858353073095e-02
-8.567568304727745873e-03
3.475487767548300719e-03
1.352375090299213004e-02
2.652345042824285140e-02
4.080535204418853090e-02
5.878704483287527233e-02
7.860199526829059202e-02
1.026715700292735733e-01
1.280470633874999098e-01
1.473617069825110260e-01
1.686182250605826050e-01
1.853009168507226967e-01
1.921528223233756050e-01
1.918141212134775730e-01
1.742598360587064299e-01
1.367275801287226589e-01
8.425804681501516957e-02
3.057799972615650799e-02
-1.511300024944823434e-02
-5.287195128224675411e-02
-7.708037045093189821e-02
-9.282655200421474628e-02
-9.983213904987557619e-02
-9.918962033773381926e-02
-9.971160989321291301e-02
-9.669105502934878527e-02
-9.247023496311995716e-02
-8.823347364370466572e-02
-8.296721730077244450e-02
-8.011129214764438344e-02
-7.650392732118732608e-02
-7.582493507749582529e-02
-7.509944879371953375e-02
-7.494029155565958000e-02
-7.783825891385884321e-02
-7.730500749237975699e-02
-7.758824719193641029e-02
-7.871946779209690326e-02
-7.906567347383247624e-02
-7.950899751127080139e-02
-7.789994831221454252e-02
-7.701157341365939824e-02
-7.421371780782105854e-02
-7.337217324492591175e-02
-7.611262295837945002e-02
-7.622746133362764964e-02
-7.602121429482461279e-02
-7.200015225827452459e-02
-6.961461122839379678e-02
-7.070269800631494295e-02
-6.627646770956942268e-02
-6.484542581945412776e-02
-6.403152327696622070e-02
-6.235967002821599797e-02
-6.417420232499311539e-02
-6.382066071780431726e-02
-6.246832628761681688e-02
-5.889791238967341525e-02
-5.670091350900934718e-02
-5.962673265003493039e-02
-5.865955141429651798e-02
-5.644471747456435845e-02
-5.404485675160675129e-02
-5.287806248656246044e-02
-5.775156432987678390e-02
-5.676074813967255800e-02
-5.180586110311150017e-02
-4.969253450859272697e-02
-4.303843025044705450e-02
-2.737470644779634379e-02
-9.686508251198053601e-03
-5.966439478368935206e-03
1.710694389603721697e-03
2.686571713783221516e-02
4.119471780276632439e-02
3.455025540836214465e-02
2.256037277297292046e-02
1.901264729505963355e-02
-8.745467779627124835e-03
-6.318904329504895778e-02
-8.235834849765227839e-02
-7.366337320879587369e-02
-6.657148593539688464e-02
-6.408262878454561162e-02
-6.639862716031151579e-02
-6.400397682918007591e-02
-7.098056350274394022e-02
-9.549516715406317080e-02
-5.954047098008072997e-02
1.518963329712898491e-01
5.513235469070478789e-01
9.906959061987218318e-01
1.061198283024747946e+00
5.771530993961793143e-01
5.018349535546250823e-02
-1.231355970008781581e-01
-1.113388208780927702e-01
-9.581127404534561798e-02
-9.747737413068569001e-02
-1.039757917205655358e-01
-1.010599810418886108e-01
-9.329494122656777078e-02
-8.564003969430833418e-02
-7.837903444021993016e-02
-7.128377441495789557e-02
-6.210778168171231933e-02
-5.862539256457116599e-02
-5.364313793081031817e-02
-4.707052151204053209e-02
-4.356249283908839032e-02
-3.600693741179799429e-02
-2.931689542822535355e-02
-2.204908137052442180e-02
-1.496525791211736692e-02
-1.126464883038133871e-02
-2.011533606341380561e-03
9.158775505693746502e-03
2.336445687564703277e-02
4.031422257843641360e-02
5.474624645624465158e-02
7.332242896560496603e-02
9.527584299565344805e-02
1.175580073641276924e-01
1.365405351182490401e-01
1.557192962489598043e-01
1.786052413109813775e-01
1.912614100477203760e-01
1.959983804500101123e-01
1.882359414337608228e-01
1.582606502015202754e-01
1.140427735854738223e-01
5.939294773940822364e-02
7.712899249959099049e-03
-3.400154217888589486e-02
-6.853197748540706957e-02
-8.758674809955006857e-02
-9.731221594091297999e-02
-1.014287663360505798e-01
-1.003517205549733782e-01
-1.012334055372153818e-01
-1.001254689463384473e-01
-9.683048003153367500e-02
-9.300872632810126828e-02
-9.030529599424384768e-02
-9.137077166170448628e-02
-8.807148377423952568e-02
-8.502080602911016305e-02
-8.352544202125924966e-02
-7.965090293090054674e-02
-7.910380776964864857e-02
-8.013895091732754772e-02
-8.160620729469506007e-02
-7.976301308880190399e-02
-7.727038554792710345e-02
-7.996030194649908496e-02
-8.031492541440872490e-02
-8.144211658103354956e-02
-8.189558176925886002e-02
-8.007549267794750181e-02
-8.064429514664712972e-02
-7.881193437438475946e-02
-7.728164246658046632e-02
-7.616779260891148873e-02
-7.518333679312411144e-02
-7.537037048716960230e-02
-7.272593563047892451e-02
-7.379177797521409288e-02
-7.386422670130808610e-02
-7.020977059281735544e-02
-6.756383688778511143e-02
-6.396165694036813620e-02
-6.441537449538940752e-02
-6.403610166309807450e-02
-6.097881213547126644e-02
-6.128313424540550447e-02
-6.088765541262283754e-02
-6.070211085383826755e-02
-5.403679557267835470e-02
-3.818463253513209449e-02
-2.487130551273375803e-02
-1.575502111270045066e-02
-8.042598488023291678e-03
1.110390028378491732e-02
3.083931467079039160e-02
3.286555988605893708e-02
2.541241901087087918e-02
1.729423412214092445e-02
2.757743741872511773e-03
-4.448776226405885131e-02
-8.731767202524221005e-02
-8.388573519659947575e-02
-7.509936252938362311e-02
-7.305483551971495015e-02
-6.924621373240663624e-02
-6.867749878444776024e-02
-7.093564919664359369e-02
-9.533887423839022823e-02
-1.015983806326840322e-01
3.604744564505159288e-02
3.647238565431747959e-01
8.207304938244063264e-01
1.105612314026327203e+00
8.450190359314539990e-01
2.730046144073449699e-01
-6.750248270945310991e-02
-1.238945417841651464e-01
-1.164962987400817718e-01
-1.156371961043733132e-01
-1.147053690606026494e-01
-1.156815827702215166e-01
-1.081747712944547690e-01
-1.002921088598305865e-01
-9.406367818002428494e-02
-8.590356741682253494e-02
-8.070359638949836656e-02
-7.556800743833379241e-02
-7.213311681408793308e-02
-6.570872149125341066e-02
-5.570275576778313531e-02
-4.941150551288637366e-02
-4.320170051856382643e-02
-3.690981790893059500e-02
-2.927829432723473568e-02
-1.998314810538081437e-02
-1.126364008442298954e-02
-2.676803845122378931e-03
5.680234830644448341e-03
2.142915794456703993e-02
4.292044018893316493e-02
6.036984559555679669e-02
7.926230261673777866e-02
1.011511437033048022e-01
1.255188591085369398e-01
1.490242676371480168e-01
1.676559695150544316e-01
1.848618581467762478e-01
1.928462483598478716e-01
1.869829920827699166e-01
1.655809832815090255e-01
1.258663892260943606e-01
7.502402927896541229e-02
2.017837626202998932e-02
-2.748346768809379476e-02
-6.210307377971751447e-02
-8.398961082372147224e-02
-9.452921496307126192e-02
-1.021267749249142875e-01
-1.049700812065525596e-01
-1.049248564996824173e-01
-1.025252746773675921e-01
-9.490241352258418916e-02
-9.535702719892073798e-02
-9.627512419519085318e-02
-9.230703702992104631e-02
-9.111580613491160330e-02
-8.687358477747431085e-02
-8.387799194614226073e-02
-8.403764935806018466e-02
-8.208303116160466095e-02
-8.023309189407050457e-02
-7.730636367250796892e-02
-7.735774675944724621e-02
-7.963679387723439362e-02
-8.003944246845749733e-02
-8.019923300170474223e-02
-7.817837712650640980e-02
-7.906038820015705293e-02
-7.957216448999050729e-02
-7.663999819738878672e-02
-7.483519860047140038e-02
-7.087614751113867351e-02
-7.079607903044506101e-02
-7.103564880090508515e-02
-6.875608130937142792e-02
-6.946985653985054965e-02
-6.722148003366601454e-02
-6.808543386271280473e-02
-7.001210721736818299e-02
-6.599945538307820658e-02
-6.340762666822234717e-02
-6.092001731615517834e-02
-6.170986117078593181e-02
-6.178171062402156022e-02
-5.839239917144017911e-02
-5.852592262318127153e-02
-5.680241658675699162e-02
-5.388847629849733561e-02
-5.219030733155149288e-02
-4.729722915667235877e-02
-3.187261814888016354e-02
-1.430123536859918311e-02
-1.056943593277708676e-02
1.417205498315122396e-03
2.956618169470009647e-02
3.852694570476499630e-02
2.800037217863696193e-02
1.887247476138362995e-02
1.516843979853274398e-02
-9.276511272052841497e-03
-6.380746948325560775e-02
-8.891485409342132773e-02
-8.026927303282256621e-02
-7.580124853745107139e-02
-7.444030070733785587e-02
-7.345898159624703050e-02
-7.152198184256688962e-02
-8.675455491937800190e-02
-1.181665373761172644e-01
-6.251199392340284211e-02
1.842360696714817059e-01
6.195543092243346317e-01
1.059368717716899333e+00
1.077575628858352452e+00
5.738758144819424700e-01
6.595391497555755378e-02
-1.117562803463029719e-01
-1.187746877801053036e-01
-1.150164806770293952e-01
-1.190483581094593374e-01
-1.204633912100120663e-01
-1.122579299187475010e-01
-1.060427323162217300e-01
-1.001092918335908383e-01
-9.152710768207977798e-02
-8.505086477160954395e-02
-7.569318077076128692e-02
-6.757679563034191261e-02
-6.279245148845324920e-02
-5.947814461745624254e-02
-5.594945807227480472e-02
-4.919545464186402678e-02
-4.372789638231749237e-02
-3.708703323096641802e-02
-2.661347673180384371e-02
-1.783911151814383464e-02
-8.272427564851591447e-03
-4.825610103793830661e-04
1.326436042392300542e-02
3.440251762940846336e-02
5.023131214205933670e-02
6.792692244944679991e-02
9.032241165044235798e-02
1.146393803386293597e-01
1.383427094822341219e-01
1.573974512002691561e-01
1.767987691322097099e-01
1.893986401291892496e-01
1.914443265188282284e-01
1.796869454501242580e-01
1.457251562611968365e-01
9.340791170605616811e-02
3.596178574904284470e-02
-9.036305150565991651e-03
-4.237095026585040169e-02
-7.406857630824995042e-02
-9.262399849080421577e-02
-9.775028274617486579e-02
-1.015010911985635284e-01
-1.031119518890794562e-01
-1.003322165297208246e-01
-9.688706819462214459e-02
-9.529401209085117119e-02
-8.949606016563946276e-02
-8.548943872069492134e-02
-8.779669602822737229e-02
-8.346880192306915802e-02
-7.993968930316502908e-02
-7.994954595287483146e-02
-8.235271066488565606e-02
-8.496208071743793777e-02
-8.180214966490620410e-02
-8.392829193028356061e-02
-8.502458469307411226e-02
-8.392731117427787435e-02
-8.706334153480875526e-02
-8.466930898920482784e-02
-8.413653252195231469e-02
-8.409070622267483808e-02
-8.267919361143039048e-02
-8.316004826993321497e-02
-7.781007193662364818e-02
-7.787670971871103742e-02
-8.079145626919183310e-02
-7.657468855729530899e-02
-7.278466615474098178e-02
-6.964560692487317684e-02
-6.869272404540811838e-02
-6.719148602554057825e-02
-6.551653213450986390e-02
-6.724839566731709295e-02
-6.494851832164712235e-02
-6.392772478318192730e-02
-6.503194249546594141e-02
-6.379693692686766449e-02
-6.564091756536925837e-02
-6.505354040660309145e-02
-6.290033908622244541e-02
-5.909262035043644223e-02
-5.309666480836289226e-02
-4.464487725253485362e-02
-2.775336031379911639e-02
-1.542980437411870659e-02
-9.353385432238953481e-03
6.096226770916439788e-03
2.830842366034534013e-02
3.625473409492962346e-02
2.399726215614666688e-02
1.642833414678351520e-02
1.011565307585428515e-02
-3.064302815725826468e-02
-7.683562015728812034e-02
-8.238378221945058533e-02
-7.239155557970274046e-02
-7.145825512843498317e-02
-7.062273611311503663e-02
-6.437609029616379874e-02
-6.555779106628743802e-02
-8.456559661293819308e-02
-9.613469877191625768e-02
1.308542593354701349e-02
3.202032810983747591e-01
7.726946549813492604e-01
1.107076968597484834e+00
9.044698326356727103e-01
3.157872048844579949e-01
-6.097307404096238836e-02
-1.226834567780148294e-01
-1.038020896764139805e-01
-9.936870469050598786e-02
-1.045489466492369318e-01
-1.019340704591448488e-01
-9.652607166452353837e-02
-9.162680055611059637e-02
-8.630207125638433840e-02
-8.585083445103414146e-02
-8.070069064765661437e-02
-7.349222445782582769e-02
-6.572975223368270059e-02
-5.968052862829736210e-02
-5.813194582391949944e-02
-5.050852592861622414e-02
-4.403148610852630068e-02
-3.813536829551406049e-02
-2.863271949836034003e-02
-2.094501093294541538e-02
-1.015232112639118112e-02
-5.605224288587924838e-04
1.154537822451132123e-02
2.664627490768562562e-02
3.707772274664121459e-02
5.405507624975737502e-02
7.686823915891355385e-02
9.949865894793613608e-02
1.204666981064862752e-01
1.416110012550137742e-01
1.666402416514551066e-01
1.810910666058311858e-01
1.875452118340516505e-01
1.884117665248171147e-01
1.688065642388018872e-01
1.309906159357792921e-01
7.749604015142136371e-02
2.138062907247265110e-02
-2.288346843754791513e-02
-5.859165933026947576e-02
-8.258794494960797206e-02
-9.677577763981128067e-02
-1.030906795588847624e-01
-1.015944975920450022e-01
-9.952058597454481459e-02
-9.694817492105012313e-02
-9.766496980600171407e-02
-9.843529903449037277e-02
-9.488835979231566298e-02
-9.144178164504022932e-02
-8.493404497013701260e-02
-8.147142898174382364e-02
-8.305892577699207358e-02
-8.362898959067181781e-02
-8.288217447282136829e-02
-7.985537108039368615e-02
-8.025875529321044310e-02
-8.030087765596602423e-02
-7.959891988026801535e-02
-8.139741751566366423e-02
-7.949497693499706086e-02
-7.928214140513006880e-02
-8.021958525300851295e-02
-7.923921070666439803e-02
-7.849326236373288523e-02
-7.675109755014569712e-02
-7.868717231572812387e-02
-7.876001180680804181e-02
-7.667807881654320479e-02
-7.806827157629582514e-02
-7.420208961236551826e-02
-7.130376091502078906e-02
-7.095704661185456286e-02
-6.897247340178458419e-02
-7.046352951287443434e-02
-7.001587475201685729e-02
-6.783432484473971014e-02
-6.455540606281420790e-02
-6.187850791710816645e-02
-6.054336842218547426e-02
-5.701259553072653141e-02
-5.763757420131650211e-02
-5.266875811358010667e-02
-3.580297279769859703e-02
-2.003650714607144862e-02
-1.109436779873051830e-02
2.020043358851107804e-04
2.041342843504838356e-02
3.162752177643994578e-02
2.653389906008547100e-02
2.004579425236910004e-02
1.127759948104878167e-02
-2.361686736443835422e-02
-7.314819451209650381e-02
-8.996932216581399189e-02
-8.292224882006736519e-02
-8.135045690632966564e-02
-7.886578075259385867e-02
-7.497116195164188479e-02
-7.487476860773907561e-02
-8.675491872184862285e-02
-1.159782884704820827e-01
-6.658845316901144951e-02
1.659282114301829092e-01
5.727747205536704023e-01
1.002537461628424165e+00
1.036981851945143474e+00
5.451633064919302329e-01
4.726106674156185794e-02
-1.205597443971305610e-01
-1.195520093556944607e-01
-1.137347940115333994e-01
-1.164537813733530075e-01
-1.147528435323805773e-01
-1.121792774737056658e-01
-1.053681911379840408e-01
-9.673431333896595485e-02
-8.887514175098870650e-02
-8.083721298302701253e-02
-7.501089593692257529e-02
-6.812849306792727322e-02
-6.563958792007593135e-02
-6.308606840413716332e-02
-5.557649761526618770e-02
-5.379319136317317618e-02
-4.978776227677047389e-02
-4.200842544300342762e-02
-3.203722081197116905e-02
-1.888274380236914726e-02
-9.035207058622502646e-03
2.924725981301046045e-03
1.649251006937127798e-02
3.151863262449389191e-02
5.061641805550719936e-02
6.801597786128481260e-02
8.856275708439186045e-02
1.124236406570796598e-01
1.365992555177600598e-01
1.602939444738606944e-01
1.793451805606308957e-01
1.939787143876083864e-01
1.972402278679996623e-01
1.818718884689085880e-01
1.458549540534868627e-01
9.359924973410682636e-02
4.080320110555779589e-02
-6.942876860214320517e-03
-4.545296124516018388e-02
-7.146304161505333263e-02
-8.743238777840456333e-02
-9.286034707252674436e-02
-9.520999902058291386e-02
-9.719285382077354207e-02
-9.674681265241942552e-02
-9.526251227268814348e-02
-9.190045111080065443e-02
-9.116163585688384641e-02
-8.864513067602032559e-02
-8.503136588417940789e-02
-8.424994755965414805e-02
-7.996005226531945065e-02
-7.737097229062794845e-02
-7.631565587578220677e-02
-7.531849932638173817e-02
-7.665969689524693154e-02
-7.577111954147457140e-02
-7.669655209327369549e-02
-7.754384570149699951e-02
-7.779323433863789827e-02
-7.854568103420390968e-02
-7.664545051705512480e-02
-7.689563156976075842e-02
-7.590430418036286930e-02
-7.372539122686697088e-02
-7.463496800591666591e-02
-7.351555914189213115e-02
-7.299764811048044255e-02
-6.944462867476411394e-02
-6.610062619375435544e-02
-6.636273452437739528e-02
-6.333092303851298177e-02
-6.204987969527641506e-02
-6.210908942000249733e-02
-6.178572410376699520e-02
-6.113768390844483147e-02
-5.800241773473685525e-02
-5.836550822734981603e-02
-5.779250666734817715e-02
-5.423065851998803283e-02
-5.458745840902876761e-02
-5.320000915082929993e-02
-4.986933818704134685e-02
-4.644231907043084445e-02
-3.695575828318251738e-02
-2.446413401170417778e-02
-1.198371935772607651e-02
-4.026123067516432924e-03
1.100940810940830884e-02
3.158374416996721779e-02
3.604666740815541670e-02
2.971785526170317437e-02
2.165553342581957863e-02
1.471481401660394706e-02
-1.994707211076666986e-02
-7.455742861944396338e-02
-8.492319817943633220e-02
-7.324030239493134475e-02
-6.962939844198505479e-02
-6.505582032261063297e-02
-6.594332367347861823e-02
-6.735285980337300804e-02
-8.232336064841236367e-02
-1.106512325050225676e-01
-4.719622096473245765e-02
2.072211334444531983e-01
6.464146706853629576e-01
1.074014201774130539e+00
1.058427002977141651e+00
5.405759225286448366e-01
5.212546085032254001e-02
-1.090041383276278142e-01
-1.130414964628159019e-01
-1.089871662971062111e-01
-1.109185440779604931e-01
-1.134185791351009498e-01
-1.084664759497178804e-01
-1.015785387275586482e-01
-9.591637386296070211e-02
-8.855646786482157529e-02
-8.274730133677456190e-02
-7.633631177842051252e-02
-7.195770630654162170e-02
-6.738495834439010845e-02
-5.764397253212127231e-02
-5.158668039214987788e-02
-4.876408988633394032e-02
-4.464452307927465474e-02
-3.774657280506973911e-02
-2.886976466568794142e-02
-2.112248207619016327e-02
-7.392381820373984842e-03
4.504636594249896049e-03
1.371908628856165213e-02
2.999201813029855543e-02
4.857161453101834642e-02
7.272182368645915829e-02
9.537099574954485681e-02
1.151904348160731617e-01
1.401407650999896837e-01
1.612446633436777910e-01
1.797616943336873829e-01
1.922318588002883410e-01
1.919445679836337959e-01
1.750415055091281424e-01
1.380386092247919971e-01
9.080704902417124913e-02
3.676438582068791011e-02
-1.228673402201459208e-02
-4.806653333499374264e-02
-7.539662686107578837e-02
-9.061018651168842308e-02
-9.851977466484732049e-02
-9.912838350207321680e-02
-9.510655340366888644e-02
-9.424964155205522998e-02
-9.015171872604604841e-02
-8.866900997751181457e-02
-8.970582800249253530e-02
-8.439729126007579352e-02
-8.314070532635114974e-02
-8.523664621515354700e-02
-8.274151329154949552e-02
-7.797616729616368980e-02
-7.551556888064983597e-02
-7.649442864579739099e-02
-7.547044329064329926e-02
-7.443857423707493648e-02
-7.642051893328205558e-02
-8.036095067327513053e-02
-8.129881665732477392e-02
-7.681391646601079537e-02
-7.526254571447410502e-02
-7.371478099716809174e-02
-7.101760323494317462e-02
-7.086551184009068360e-02
-6.943421435527095953e-02
-7.066004085004377877e-02
-7.053821538445309569e-02
-6.656088237672296015e-02
-6.635283278674022900e-02
-6.430331883743309329e-02
-6.158853302663816476e-02
-6.034246909433437639e-02
-5.797662567867487710e-02
-5.977340567367640800e-02
-5.931066032441261598e-02
-5.672520161507262071e-02
-5.522886823592672301e-02
-5.096413076102901396e-02
-5.011762355619403531e-02
-5.133332546534461610e-02
-5.267186460662964809e-02
-4.867674274918511179e-02
-3.600473926427085608e-02
-2.265550295478969967e-02
-8.636880600475153533e-03
-4.347212763983649385e-03
6.314811117000403325e-03
3.086837998855082588e-02
3.896115404477801941e-02
3.200258911249494881e-02
2.411746185354477282e-02
1.070199857568315122e-02
-3.358261482493099526e-02
-8.084564566962465504e-02
-8.306359847077565695e-02
-7.283475482540806289e-02
-7.206965290877913322e-02
-7.147241635293244411e-02
-6.937619037431101698e-02
-6.711631670790590976e-02
-8.319214637791350064e-02
-1.038027251626543468e-01
-1.840755505983050419e-02
2.577234383461485812e-01
7.033768704273907213e-01
1.091832565004768218e+00
9.777948812246750609e-01
4.036624437079722738e-01
-3.380536167411261200e-02
-1.254916724116610927e-01
-1.034089891730575750e-01
-9.711937053295729982e-02
-9.897057383170626554e-02
-1.010453024864604726e-01
-9.708868008927962201e-02
-9.202377111150152056e-02
-9.006624380659723761e-02
-8.493660921684098586e-02
-7.899855263741924205e-02
-7.101407221245431556e-02
-6.377950262707580975e-02
-5.789818886574860102e-02
-5.165914479285769328e-02
-4.863044978529715290e-02
-4.617556815966534361e-02
-4.218794802159925306e-02
-3.233900966740445998e-02
-2.131016075312865132e-02
-1.369445882294986240e-02
-2.421570468533949111e-03
6.987845199798264212e-03
1.697081789878667965e-02
3.401285158526605457e-02
5.231812252648428141e-02
7.127458794537880338e-02
9.189587466861937060e-02
1.149370331676457663e-01
1.376750554039621322e-01
1.560665692746620314e-01
1.754287711505979896e-01
1.884719303921712497e-01
1.871529712870140805e-01
1.680378847995475378e-01
1.261962859977581730e-01
7.280575177546581844e-02
1.857440637110835402e-02
-2.709300844362002789e-02
-5.939139203047190396e-02
-8.321626586842723050e-02
-9.716399998252767123e-02
-1.044428526085641740e-01
-1.088510670721669488e-01
-1.088238634742784011e-01
-1.057593955080290277e-01
-9.929770161043402488e-02
-9.587430276441818999e-02
-9.405672624115471447e-02
-9.096690731750618764e-02
-8.959521487281305041e-02
-8.390658561568001272e-02
-8.179975706682261760e-02
-8.278937478500031366e-02
-7.996169761723397051e-02
-7.888746090453951920e-02
-7.737426681593588540e-02
-8.011048215142857476e-02
-8.318103534712008307e-02
-8.090714578193908268e-02
-8.036612488304746560e-02
-7.979901155295700266e-02
-7.866185720355219069e-02
-7.840234293653894349e-02
-7.812299188308931275e-02
-7.874593194663812024e-02
-7.872909098295866048e-02
-7.813834951390978556e-02
-7.263876613110729907e-02
-6.856586690120224092e-02
-7.245707883546675943e-02
-7.241178597651710958e-02
-7.074194008967862879e-02
-7.143301273391093609e-02
-7.082246283692582300e-02
-7.060514997104143375e-02
-6.675320252151362155e-02
-6.640179882733038275e-02
-6.569632601338773470e-02
-5.793340313224178140e-02
-5.175672211253193322e-02
-3.940857097634933859e-02
-2.382408267122449602e-02
-1.553177195206689211e-02
-6.139788842037262155e-03
1.230806347244510143e-02
2.766572386087325086e-02
2.518970272986905193e-02
1.843229977833085037e-02
1.663417318375009710e-02
-1.138179559205224761e-02
-6.389191797652980787e-02
-8.901825607942662200e-02
-8.270596549205969095e-02
-7.682103684400745647e-02
-7.717852507347018609e-02
-7.568730672023703254e-02
-7.302398064892030860e-02
-7.704931823371188870e-02
-1.051632741089060935e-01
-9.282634605416657803e-02
8.959752422668496030e-02
4.519355663142938795e-01
8.978075945903225552e-01
1.080906582052987730e+00
7.022376027941662491e-01
1.505194710622737297e-01
-9.989542276582624725e-02
-1.212736249181395609e-01
-1.104725452877592939e-01
-1.120994537361052479e-01
-1.148660959698349499e-01
-1.133343227789052332e-01
-1.062405378433904091e-01
-9.709299542409889627e-02
-9.080970126398253683e-02
-8.170601790071405079e-02
-7.384219212124680520e-02
-7.000117389243470933e-02
-6.354084004817255049e-02
-5.810909244135201157e-02
-5.343768128521329125e-02
-5.096816965714202896e-02
-4.495426939767458580e-02
-3.535772734790850608e-02
-3.192931016123038562e-02
-2.579337907165511062e-02
-1.603156432233832432e-02
-5.716425132738980203e-03
8.925968396261130949e-03
2.344388932231941669e-02
4.252486498067806903e-02
6.476373190997745943e-02
8.770735547362179529e-02
1.118002795260685939e-01
1.323024995015534833e-01
1.552502723987176925e-01
1.737379957161722110e-01
1.871605293398664605e-01
1.965974516053181353e-01
1.801319259561428021e-01
1.439648643506591108e-01
9.713107322266337218e-02
4.294262817488433970e-02
-5.302901704218508649e-03
-4.682590051801707037e-02
-7.225429371559345670e-02
-8.478353465778069864e-02
-9.594471736966436737e-02
-9.993609424978283640e-02
-9.782495085542269875e-02
-9.425703826494097326e-02
-9.428666347139207093e-02
-9.610620291535430793e-02
-9.474152558826948178e-02
-9.183623288401276952e-02
-8.589743619289127996e-02
-8.255019830320939334e-02
-7.995014788097562497e-02
-7.619583488473670452e-02
-7.704455323286790724e-02
-7.452190381482202974e-02
-7.349135922306881952e-02
-7.504275370747483243e-02
-7.273955520732375279e-02
-7.436297483530145136e-02
-7.515378111168491415e-02
-7.542259863329935088e-02
-7.630249445211768899e-02
-7.220880671743917789e-02
-7.214558602619161598e-02
-7.290795587896943541e-02
-7.189842101885579595e-02
-7.240022101242142571e-02
-7.051729912887168272e-02
-6.838549745219589526e-02
-6.413526402964692119e-02
-6.161494366786242349e-02
-6.202308604307871231e-02
-6.035232665915007261e-02
-5.761963869946189892e-02
-5.762335709210730100e-02
-6.302223021210244525e-02
-6.203687269638952229e-02
-5.585691690061474202e-02
-5.340554601788258249e-02
-5.091145540878048298e-02
-5.232206794623493057e-02
-5.230310409574570607e-02
-4.658661133891408429e-02
-3.909003927214495244e-02
-2.125243636466454117e-02
-6.655688555425930825e-03
-2.440211141804388834e-03
1.320471271893667448e-02
2.924426040529605822e-02
3.330256021689791818e-02
2.762280231687919141e-02
1.881795207213822832e-02
1.310119138606433489e-02
-2.127497958209105880e-02
-7.052073762284238878e-02
-8.376365494831518321e-02
-7.430187062038377810e-02
-7.130650713808583951e-02
-7.510650585525083245e-02
-7.381029835254246385e-02
-6.932916613618121671e-02
-8.033884058949206097e-02
-1.086291015643551933e-01
-5.439137111963246451e-02
1.959808128274858618e-01
6.266158679073426940e-01
1.055125577637061829e+00
1.068539429415204634e+00
5.714223777129222581e-01
7.842526729949873820e-02
-9.982270291607302226e-02
-1.112105662615527485e-01
-1.047979475152027995e-01
-1.105939882896264659e-01
-1.131383693588293993e-01
-1.081272246687392385e-01
-1.006530753401357753e-01
-9.159702297720068165e-02
-8.702604163527172254e-02
-8.085300059897509994e-02
-7.339488372299517172e-02
-6.859765907592943468e-02
-6.121538881408438576e-02
-5.504695567353114216e-02
-5.111104010661415842e-02
-4.748377657139538077e-02
-4.054117497034459561e-02
-3.149752945734914794e-02
-2.658491287812991474e-02
-2.027553883008061456e-02
-1.167788852533378947e-02
-1.421506127023186572e-03
1.323730217159600243e-02
2.909031988267643185e-02
4.999864450427204954e-02
7.002521425118311826e-02
8.973012610018916979e-02
1.148066172476169822e-01
1.399393986916672161e-01
1.642512131298703715e-01
1.802606987492784141e-01
1.899077462304500086e-01
1.919967502270550630e-01
1.711950612246688763e-01
1.330359118428066922e-01
8.032094843011505780e-02
2.447480431883226545e-02
-1.984832079286464462e-02
-5.751633660999375813e-02
-8.027045828855028375e-02
-9.070897857195944769e-02
-9.525333385138594344e-02
-9.481264001866029911e-02
-9.713472331010070127e-02
-9.679854868107973243e-02
-9.587800565494969396e-02
-9.108800503788541669e-02
-8.302087659987344992e-02
-8.440951867401981501e-02
-8.445088398536348961e-02
-8.134278549670688474e-02
