-6.711252509157768220e-02
-4.627882614417083706e-02
-4.748394234696586697e-02
-4.920545864241989559e-02
-4.694203594172869504e-02
-3.584194532576802372e-02
-3.690026092084995601e-02
-3.392454936289270723e-02
-3.076221396782907735e-02
-2.856038106380745512e-02
-2.520067981567514215e-02
-2.273667033095543369e-02
-2.830617437823848212e-02
-3.189833619788220997e-02
-2.581541139423205317e-02
-2.166952870777208787e-02
-2.588166969586173927e-02
-2.649015416208763338e-02
-3.071907414174951043e-02
-3.145796536066485655e-02
-2.762077102005429385e-02
-3.078676566165534229e-02
-3.371162159732943309e-02
-3.254559011901055759e-02
-3.391392646607428729e-02
-3.509241943756224308e-02
-3.450246586461527126e-02
-3.097516919491810281e-02
-3.041478750093680808e-02
-3.087512659272946547e-02
-3.414848273485690533e-02
-3.294331660437490455e-02
-2.878523703354659777e-02
-2.994726287746095686e-02
-3.046087488626524065e-02
-3.071086125514818285e-02
-3.032174629925736900e-02
-2.468049221778899002e-02
-2.537488726176811635e-02
-2.676930685642318203e-02
-2.495575500388350076e-02
-2.288690433102943955e-02
-2.338793434248775949e-02
-2.353384180034048812e-02
-1.708432712189454292e-02
-1.843936372713986423e-03
2.333709094800281991e-02
4.682228338063421785e-02
5.659655578474558774e-02
6.597325484013845387e-02
6.385693235388216482e-02
4.205754876311559171e-02
2.166638584649571014e-02
8.004763008264519086e-03
-1.713463670949708908e-03
-1.773731634917390804e-02
-3.966571965612258194e-02
-4.817571903064731681e-02
-5.362298567716219932e-02
-4.854505253197979875e-02
-4.050278803585594112e-02
-4.211283116048624570e-02
-3.934190559523598196e-02
-1.661106925854338723e-02
5.624312417762165200e-02
1.705944478357341865e-01
2.323520569265986602e-01
2.458503684596316519e-01
1.637273565988845436e-01
-1.919458946018224588e-01
-4.808265920545092276e-01
-3.497872362635265908e-01
-1.086582730316468237e-01
-1.045397588959904927e-03
1.839170456645776441e-02
1.015679283113049038e-02
1.134653410143888867e-02
1.932290713314007563e-02
1.934660661485429478e-02
1.943340016318081953e-02
2.207735097883509884e-02
2.289621538111579271e-02
2.584751938911233546e-02
2.593545667627975698e-02
2.533785876401452655e-02
2.866645630526511168e-02
3.358654320687411154e-02
3.610242366659536378e-02
3.862527385954100945e-02
4.525536629891442619e-02
5.123557119854430658e-02
5.907873308092936177e-02
7.064071520389962611e-02
7.694789895373088662e-02
8.619707426886481783e-02
9.695809415558073741e-02
1.035995847867517139e-01
1.155387830181433817e-01
1.269406553168786755e-01
1.417034891585797762e-01
1.581607248246196251e-01
1.616715467095153902e-01
1.678600251048274206e-01
1.762553382160778614e-01
1.760661042996555792e-01
1.651024806428783853e-01
1.400383923822575705e-01
1.101335208759095519e-01
7.180333436185927509e-02
3.112071605424940324e-02
-3.524796310422020299e-03
-3.115856834639062559e-02
-4.730928374610987586e-02
-5.755592120006465529e-02
-6.297797934690500810e-02
-7.258341106265457643e-02
-7.703014868866847609e-02
-6.698430747142365693e-02
-6.185801378810761725e-02
-5.855304580287567368e-02
-5.671485100259302664e-02
-5.823622918939178744e-02
-5.459188530659313948e-02
-5.105082746927348814e-02
-4.476230233181626578e-02
-3.855315533465802219e-02
-4.091689106620900740e-02
-4.414836870530180341e-02
-4.209289760638289940e-02
-3.541292501296442602e-02
-3.661236406208694116e-02
-4.066212063423219059e-02
-4.115926813379224697e-02
-4.582293493671139167e-02
-4.816912765366081900e-02
-5.016532173677726997e-02
-4.951247959950712263e-02
-4.482701920297847004e-02
-4.637137159257517793e-02
-4.957226665644867691e-02
-5.193756577539862529e-02
-5.151107856574607680e-02
-4.840458555893970699e-02
-4.841939204756936371e-02
-4.579928141352766074e-02
-4.111542618318762832e-02
-4.015685235540718268e-02
-4.304129588143693758e-02
-4.854051261273620299e-02
-4.633446796309950710e-02
-4.238949903407874392e-02
-4.665981486541799506e-02
-4.697533715829646517e-02
-4.555334329300803065e-02
-4.859204777182828117e-02
-4.976051585205153865e-02
-4.929872007862974581e-02
-4.550663323836054430e-02
-4.408192535025125258e-02
-4.525743424962999639e-02
-4.512730375930060212e-02
-3.531634367557651838e-02
-8.060375656918545434e-03
1.646900179340208409e-02
3.397789379808018040e-02
4.520326370898567619e-02
4.316660061324915920e-02
3.543244981829787171e-02
2.056845077243692893e-02
-2.658786576740094706e-03
-2.642026484753769167e-02
-3.954787590474962561e-02
-4.824708553519403004e-02
-6.643549324735764650e-02
-7.856459490684210289e-02
-7.905679751321398330e-02
-7.719094687459482351e-02
-6.918595445842813663e-02
-6.617894306071783750e-02
-6.213578686096635217e-02
-1.557873503324657197e-02
8.376443961405494187e-02
1.594257627113637443e-01
1.595988121626245038e-01
1.312899544859308931e-01
-9.684558655630803869e-02
-4.447494506183266028e-01
-4.533318352916681504e-01
-2.287452834710118621e-01
-8.024288205859717027e-02
-2.030517107444301111e-02
-1.692520772984651076e-02
-1.583013561986738871e-02
-8.360095259883354099e-03
-5.061404753441185560e-03
-8.009608561803131452e-04
1.942017129393391710e-03
1.644339611210006522e-03
-1.092745476958792991e-03
1.178850806547387204e-03
2.023577585410790084e-03
8.295509164442289602e-04
6.183784371010993958e-03
7.664702522951869108e-03
1.084706790555595157e-02
1.531251309640702801e-02
1.961585147012803731e-02
2.773790888449908718e-02
3.131067220475202556e-02
3.522278881946577095e-02
4.231711599849158345e-02
5.561484955874832631e-02
7.366422742985848093e-02
8.360566928454798985e-02
9.121362720202606800e-02
1.015136075281475175e-01
1.147850071910445635e-01
1.292716252494084395e-01
1.346747112790010747e-01
1.437733708113494435e-01
1.488059332955259662e-01
1.366877937361255513e-01
1.220678307662858286e-01
9.808922383214563334e-02
6.446774162350571435e-02
2.885905772975439626e-02
-7.841887183224380622e-03
-3.525510266714428770e-02
-5.754319445516301035e-02
-7.566129478027427968e-02
-8.381585828473515909e-02
-8.483141402058444469e-02
-8.572487317410365515e-02
-9.140244288747503831e-02
-9.248591799080964349e-02
-8.866198474331181412e-02
-8.319985996514928095e-02
-7.433847090524725587e-02
-7.436334694336288464e-02
-7.241005234330709361e-02
-6.086372114347138318e-02
-6.028814420451531625e-02
-6.792678304651254828e-02
-6.570875723975859450e-02
-5.760697564905238599e-02
-5.653253194880714094e-02
-5.873349658497972053e-02
-5.613787770580254410e-02
-5.797037979574920508e-02
-6.368586853334515241e-02
-6.523117255744247112e-02
-6.463970712185745926e-02
-6.509667104169183927e-02
-6.785678772628474242e-02
-6.598997921993518534e-02
-6.320563932385234174e-02
-6.478364671823182153e-02
-6.457527231982616855e-02
-6.411884977895070115e-02
-6.028229766364260472e-02
-5.850790582394508471e-02
-6.147439794445585387e-02
-6.147525551074602135e-02
-6.039337721754269028e-02
-5.630225409223402200e-02
-5.661288250151706031e-02
-6.186411854065232419e-02
-5.988791126488679506e-02
-5.731856345081424303e-02
-5.776071097175788233e-02
-5.991720561468782263e-02
-6.216652620957641151e-02
-5.214126391321793202e-02
-2.691943897827675514e-02
-1.532572283718070579e-03
1.489295522364014572e-02
2.838347988868562127e-02
3.556908885863306613e-02
2.398016817367144837e-02
9.605594094839103869e-03
-8.150443365364147194e-03
-3.030876749659169866e-02
-4.023861816455578250e-02
-5.615196618131776396e-02
-7.797067794749319714e-02
-8.815402307546731098e-02
-8.854582427840280989e-02
-7.974392394697638053e-02
-7.433748692247622858e-02
-6.835282884637065848e-02
-6.319661308187311810e-02
-3.823365352455977001e-02
5.099637049000815825e-02
1.565696242457956799e-01
1.891897919392493410e-01
1.913492044251036972e-01
5.505929532039315760e-02
-3.076197891215752822e-01
-4.639681067952316496e-01
-2.729317772886806770e-01
-8.721610772440588355e-02
-1.332485067378289673e-02
5.271291106530863121e-03
3.194889866294708513e-03
5.106171205786775268e-03
1.184764567342695002e-02
1.486300824775423426e-02
1.662511735662914811e-02
1.815138308500188410e-02
2.150213028569193316e-02
2.240560109236569564e-02
2.189477392242101042e-02
2.339838437663379830e-02
2.036213123970061559e-02
2.240453775470215361e-02
2.743733321267201666e-02
3.131039016186751289e-02
4.071326991391167882e-02
4.602228604929876898e-02
5.312986770811670839e-02
6.605867804922041508e-02
7.402998269360348826e-02
8.196212798301337477e-02
9.237979275127722323e-02
1.091479310786936802e-01
1.242656550752863770e-01
1.310656461521679528e-01
1.435051012153525929e-01
1.540260911775278851e-01
1.651370443669872012e-01
1.798434651852598432e-01
1.823340415940540582e-01
1.778618711772344263e-01
1.663112295638075611e-01
1.399114712423496498e-01
1.002064204105159173e-01
5.670245359772969895e-02
2.080439326277409851e-02
-1.247265220358501764e-02
-4.101942088694173622e-02
-5.929300520311852479e-02
-6.827526007171874634e-02
-6.935742005955784772e-02
-7.149312878528978066e-02
-7.176760583067874621e-02
-7.219343700137371977e-02
-7.234532529897889919e-02
-6.584476714908905903e-02
-6.021580462854902310e-02
-5.272231675645618065e-02
-4.685014889004433802e-02
-4.327004873043383687e-02
-4.028891792353752471e-02
-4.189759718547753087e-02
-4.207601144225173867e-02
-3.966514182651881965e-02
-3.443761816130359171e-02
-3.410717813541219723e-02
-3.868934858829330137e-02
-3.550524511907746789e-02
-3.313433496792454053e-02
-3.611214739856529604e-02
-3.803803926501932164e-02
-4.477536556489249836e-02
-4.637303140123541501e-02
-3.988700039608901460e-02
-4.084108490514821305e-02
-4.412926156422483648e-02
-4.397989374839332555e-02
-4.144755492916132877e-02
-3.987949960482027600e-02
-4.152939307550659875e-02
-3.738825930151769977e-02
-3.326558005383500882e-02
-3.414920679860274089e-02
-3.439959303174162236e-02
-3.465810901792609755e-02
-3.546433676702279159e-02
-3.776700416742240912e-02
-3.609402761082679961e-02
-3.600702342969634012e-02
-3.978644775086022378e-02
-3.528691438330288505e-02
-3.122663101903654440e-02
-2.987257685129661791e-02
-2.935816082106553274e-02
-3.099890292342826273e-02
-2.826794439347109222e-02
-1.146255158753937617e-02
2.177670364525590221e-02
4.401174571989908274e-02
4.787199342834406318e-02
5.674961980167391590e-02
5.746514794800627185e-02
4.333556197394759779e-02
2.515666285878755473e-02
-2.178071295383696843e-03
-1.425041567628559241e-02
-1.780139085066256496e-02
-3.595932537343280583e-02
-4.660894872676544370e-02
-5.018078127549120693e-02
-5.185411021260059178e-02
-5.121770850196764174e-02
-4.614863764335146862e-02
-4.032452204075452629e-02
-2.490446075145653915e-02
3.907258521685587349e-02
1.550604324918314347e-01
2.310668587827880427e-01
2.345951137907996698e-01
1.732962390302100752e-01
-1.350532762416045141e-01
-4.679462730607286680e-01
-3.942411942077261866e-01
-1.368853246528895784e-01
-5.136738045782467295e-03
2.187516236726555138e-02
1.690396308203421724e-02
1.550835381482851098e-02
1.699635748284173895e-02
1.948626342761508937e-02
2.765243201861521116e-02
3.260043520086037400e-02
2.756941817639749909e-02
2.550770420355919638e-02
2.864844149397902801e-02
3.440712942718354012e-02
3.765451631722738224e-02
4.253744686052896018e-02
4.723335666408837868e-02
4.959728120778054972e-02
5.733038423376621978e-02
6.173786830279085619e-02
6.441408234731858806e-02
7.359285094247683401e-02
8.150468740450249328e-02
8.857439817297080298e-02
9.849810731697922206e-02
1.121556212594745222e-01
1.256525576660636467e-01
1.371327335261250668e-01
1.484150621354564104e-01
1.602842832186162081e-01
1.750098603043483414e-01
1.828602126444198728e-01
1.852510357832487520e-01
1.875457038641209495e-01
1.782848142127917423e-01
1.601581252134074151e-01
1.283710765451704094e-01
8.670082314854912764e-02
5.083567330027780745e-02
1.937377128366083237e-02
-2.785016952017953153e-03
-2.141725025036714941e-02
-3.738433461960392890e-02
-4.110758103425313920e-02
-4.431003791460427776e-02
-4.857677253318778976e-02
-4.921608442900399921e-02
-4.455983989862003641e-02
-3.809783580085425447e-02
-3.383129298457532297e-02
-2.808058823023236797e-02
-2.968881720301519075e-02
-3.182202568189304581e-02
-2.346085340899300639e-02
-2.061764490154955123e-02
-2.257540183302383235e-02
-2.071398108323531731e-02
-2.087066328169087659e-02
-2.130518492974925113e-02
-1.769870170490947872e-02
-1.265782818827443368e-02
-1.617294727780477920e-02
-2.195725147054394810e-02
-2.129520284211193493e-02
-2.498752917153360120e-02
-2.871001257729025730e-02
-2.884544711738414383e-02
-2.570022708329791281e-02
-2.358941796144463018e-02
-2.709991090314641318e-02
-2.812436531700127779e-02
-3.098911440200340442e-02
-3.216847586492316280e-02
-2.710906009008355946e-02
-2.401401241725917290e-02
-2.205761962237103371e-02
-2.713595840276588830e-02
-3.182974278609265045e-02
-2.771685067543315853e-02
-2.478398283934554747e-02
-2.525084527603857140e-02
-2.717818361750255068e-02
-2.763793383093529621e-02
-2.588365562497655509e-02
-2.666953502321076780e-02
-2.241003965975352924e-02
-2.058952285363730914e-02
-2.253836413180702880e-02
-1.164635335850332937e-02
8.035005655020447182e-03
3.121410158892288372e-02
4.830874829033324214e-02
5.812019753634686814e-02
6.945833287592094452e-02
6.004299966729187421e-02
3.900878936972982519e-02
2.474684402745744999e-02
7.457562103303907140e-03
-1.009912673512330765e-02
-2.465255991087743348e-02
-3.693903980835677725e-02
-4.197303269431995609e-02
-4.126933545257357311e-02
-4.103836143979418954e-02
-4.867137471345706068e-02
-4.883620411563152630e-02
-3.989114600341912842e-02
-1.008859145371646115e-02
6.928938397067950505e-02
1.583660850515494767e-01
1.830137015055848249e-01
1.757180514652555425e-01
4.049568545570798872e-02
-2.969060581449608494e-01
-4.379024643897724833e-01
-2.592355784603864177e-01
-8.724413637454062065e-02
-2.792933690897737506e-03
2.530917240345315067e-02
1.769239085978006540e-02
1.663700037512828508e-02
1.955645179453181781e-02
2.186895834647634845e-02
3.133596123027476005e-02
3.507868882006533878e-02
3.287888392917924507e-02
3.381189338778340520e-02
3.124118081280267967e-02
2.739894487062792885e-02
2.909536764577146453e-02
3.771033447053688537e-02
3.872864540973072062e-02
3.749416630972415149e-02
4.530874812676755070e-02
5.044466716393698758e-02
5.860301165330153439e-02
6.245830181324692199e-02
6.571428714725677245e-02
8.461988560184072194e-02
1.018706620570535848e-01
1.100383178687614899e-01
1.165676638641352514e-01
1.293284186459886520e-01
1.472127172777492332e-01
1.583062759499265226e-01
1.642497539755031211e-01
1.706474810783980278e-01
1.739880994203504838e-01
1.748514783813496232e-01
1.674409133631530044e-01
1.468167543307846157e-01
1.141648146893626259e-01
7.014419706871624638e-02
3.066501029565715797e-02
7.863185803954547215e-04
-2.306622898394103394e-02
-3.756710088640040357e-02
-4.742859467773621190e-02
-5.205593424209838116e-02
-5.290978555592729116e-02
-5.434744502525114263e-02
-5.600022433726595250e-02
-5.519790835847207533e-02
-4.891307580450515724e-02
-4.226847941016510096e-02
-3.838258197045853193e-02
-3.655135354095253447e-02
-3.372861138918505780e-02
-2.456404087768221389e-02
-2.071439131207488890e-02
-2.721316048162578799e-02
-3.230790417432262418e-02
-2.909193266087245142e-02
-2.136234959004665659e-02
-2.288443166082075597e-02
-2.777146067586247491e-02
-2.990811504714431523e-02
-3.028913928118787818e-02
-2.794934785284674747e-02
-2.963165544248701211e-02
-2.919907263766361588e-02
-2.994813277386928693e-02
-3.469309135010375383e-02
-3.369479472254795216e-02
-2.990976964965243526e-02
-2.753650686648544468e-02
-3.025760776389826989e-02
-3.255045199759617341e-02
-3.129727742776836769e-02
-3.357684968582932278e-02
-3.191686743644080865e-02
-2.602675608834308096e-02
-2.491308494650755143e-02
-2.725500896226870293e-02
-3.215770882889756183e-02
-3.413907275147336912e-02
-3.389435008379173414e-02
-3.242914080269874988e-02
-2.883926974501886675e-02
-1.928331934260187411e-02
7.586669168168674177e-03
3.385787965456140552e-02
4.406988866303573199e-02
5.362560836840762901e-02
5.815678282585065584e-02
4.629645923143647923e-02
2.731000162045015001e-02
1.138583248011568357e-02
4.514777258006797984e-04
-1.390018260709267872e-02
-3.381784474382880379e-02
-4.703524514064291728e-02
-5.391107055903732181e-02
-5.053233152344077661e-02
-4.419287619829940367e-02
-4.143225872713642011e-02
-3.994970012136975918e-02
-3.224523398306416988e-02
2.193449572966499339e-02
1.209818932096310973e-01
1.956919935970708180e-01
2.120188481817995019e-01
1.911582429974690023e-01
-4.417124048657652957e-02
-3.960899279267642847e-01
-4.065105549458176704e-01
-1.824232492458275623e-01
-3.576646855826969701e-02
2.023956774160421204e-02
2.102840543786946292e-02
2.085531037207415464e-02
3.392337964684884882e-02
3.672821361744299518e-02
3.361758009102048389e-02
3.303452605929910885e-02
3.500015034511774759e-02
3.794803503471630424e-02
3.418158216225780643e-02
3.186190505918914950e-02
3.428182932788109011e-02
4.023706469474993414e-02
4.479322598071151101e-02
4.473689536499374231e-02
4.517025219716862272e-02
4.850789235828318474e-02
5.578376915437385786e-02
6.607873441456878216e-02
7.533718763209143465e-02
8.695797735171775789e-02
9.851841893745183487e-02
1.079071667494025111e-01
1.207205894927222273e-01
1.381537800599567933e-01
1.554700931149892718e-01
1.622252394450909019e-01
1.681649601530301186e-01
1.802135787763287644e-01
1.879010752747380386e-01
1.926027600969609510e-01
1.811737046579691424e-01
1.583446548172637580e-01
1.306512992315218558e-01
9.142794903125894823e-02
5.250899160362176160e-02
1.762894011933800395e-02
-8.781870135940795727e-03
-3.174194112049666394e-02
-5.350527282414137276e-02
-5.872859205204359473e-02
-5.837014064194260415e-02
-6.114408986735702517e-02
-6.162569083408164783e-02
-6.187072154175348587e-02
-6.091300991720850766e-02
-5.786342797043384639e-02
-5.629576411243624595e-02
-5.581788445579002889e-02
-4.932849520046542202e-02
-3.842509293822210514e-02
-3.730551862796423895e-02
-3.841528823362932304e-02
-3.680145010813938578e-02
-3.787089138237195035e-02
-3.654046072564492986e-02
-3.405813694794892349e-02
-2.879095026496356763e-02
-3.035387437647027453e-02
-4.029498319882480334e-02
-3.783015662424485392e-02
-3.613958385774498211e-02
-3.895318288322630051e-02
-3.649033632331577515e-02
-3.811649797897709302e-02
-3.735891571110525056e-02
-3.508723967388067966e-02
-4.089906521172395615e-02
-4.430650759607712708e-02
-4.208696675020600492e-02
-3.978078944130654382e-02
-4.157056681309251323e-02
-4.266420658130252314e-02
-3.876021790607993983e-02
-3.234768741993709201e-02
-3.400850358871803508e-02
-4.241970780498474647e-02
-3.818324208023231997e-02
-3.362937719537528736e-02
-4.193265906385720831e-02
-3.924999369727089071e-02
-3.124555316210043954e-02
-3.381406801617921343e-02
-3.714357015674531887e-02
-3.760275729538326006e-02
-3.494182328387337305e-02
-3.087140770885212979e-02
-2.093908233531994317e-02
4.551718858602347810e-03
2.720294462215844256e-02
3.965466273273996617e-02
4.773345154095842702e-02
5.322946367681760660e-02
4.574173617014079540e-02
2.260821021271637588e-02
3.459870802288157222e-03
-9.646882796581058780e-03
-1.709766433779026304e-02
-3.444117183224476575e-02
-5.687698843670468962e-02
-6.158885628855498284e-02
-6.273986412289435377e-02
-5.693008253293919962e-02
-4.938746372427987863e-02
-5.048364347613585462e-02
-4.866415944010675509e-02
-1.078446126984666104e-02
9.039280762708823413e-02
1.992655074531138049e-01
2.283482356305803762e-01
2.079997356129414943e-01
2.509456841587728859e-02
-3.574661423460204213e-01
-4.875397658573558113e-01
-2.621058883011351259e-01
-5.602339770662576740e-02
4.701578900494520624e-03
3.173215468919913379e-03
6.773863349834186552e-03
1.454251283566973009e-02
1.667421831669145885e-02
1.840123325698329523e-02
2.024282578542177871e-02
2.192364299569965827e-02
2.165544239605858221e-02
2.035774627770671821e-02
2.133512748132501691e-02
2.890245724353728007e-02
4.058434070085936707e-02
4.206385187424563354e-02
4.072960868475437174e-02
4.442467069455802858e-02
4.874433869127222513e-02
5.549896323436098733e-02
6.247948714030237410e-02
6.934478083318824926e-02
7.828792347833374299e-02
8.817665130975960164e-02
9.650895652571708783e-02
1.058821423117325272e-01
1.221180915502508846e-01
1.362134890421388966e-01
1.448468871658662449e-01
1.567334265720597419e-01
1.672962728713094649e-01
1.739070547331150740e-01
1.777809154799620261e-01
1.757540734939652960e-01
1.625419593377898098e-01
1.329799858973897131e-01
9.529031129540485590e-02
5.832870776377491184e-02
2.737719375525187251e-02
-3.866457083627440703e-03
-3.129145606067103985e-02
-4.328916565449435205e-02
-5.322125372622831668e-02
-6.461787431889591538e-02
-6.818339909209185368e-02
-6.597783763081664643e-02
-6.500933210475019763e-02
-6.339530363215113706e-02
-5.409534614047043638e-02
-5.181546368034341266e-02
-5.183996258469084767e-02
-4.330785742257269727e-02
-4.210851840376209076e-02
-3.927030388966651353e-02
-3.215066803381566585e-02
-3.194979988863006631e-02
-3.080465347606445303e-02
-2.994918142906359548e-02
-3.217793105788117197e-02
-3.676795260696420764e-02
-3.705875088919376864e-02
-3.402682203552379742e-02
-3.787631521173576155e-02
-3.634445226159668113e-02
-3.269415245839400047e-02
-4.215751972238118706e-02
-4.854330138240667281e-02
-4.864425287600069453e-02
-4.771677665975795207e-02
-4.723716126351537592e-02
-5.219622984390456799e-02
-4.776216621664727824e-02
-4.252941158304915370e-02
-4.545516985064801396e-02
-4.677554180090308378e-02
-4.749061775909616673e-02
-4.423813194794646436e-02
-4.618129885704083670e-02
-4.487717286166945097e-02
-3.752046239974804465e-02
-4.307776878931671161e-02
-5.038350698312719228e-02
-5.056303493822573991e-02
-4.692355366017769008e-02
-4.211465565788711368e-02
-4.117166305013367222e-02
-4.167092291103943053e-02
-4.502483823042856270e-02
-4.718060457589562384e-02
-4.687844441526895639e-02
-4.687001460198441521e-02
-4.165539917694937450e-02
-2.889400574746670003e-02
-3.714085304945416791e-03
1.866889153871100285e-02
2.588488202053370810e-02
3.709646593101944417e-02
4.106867687262177880e-02
2.685015761597870504e-02
8.217380892999660152e-03
-9.505741522473080268e-03
-2.448229378562444269e-02
-4.206237511163200826e-02
-5.604281871040237006e-02
-6.429017925973917746e-02
-7.581208798286945272e-02
-7.324373608954988513e-02
-7.001575644514125563e-02
-7.151802573249392558e-02
-6.833498058426958066e-02
-5.127428668535771727e-02
1.226373534408931737e-02
1.064133599997971608e-01
1.479426639247352349e-01
1.406191376980055752e-01
6.561939362864213643e-02
-2.228559101661919672e-01
-4.508484204774643733e-01
-3.372670133882808563e-01
-1.475268183166118241e-01
-4.648861043944227389e-02
-2.845407050192783407e-03
6.247461631551851340e-04
-7.259907380156566288e-03
-9.319474489230337999e-03
-1.221430329878329425e-03
3.403629676971468496e-03
3.042689943353238304e-03
1.593235864618802906e-03
2.081832423286435023e-03
1.803343380080807759e-03
2.578126323775374162e-03
7.752632056296410862e-03
1.144709504853783262e-02
1.438752164622251334e-02
2.324609437329537565e-02
3.381230844081419690e-02
3.716689426791768003e-02
3.831787127360115203e-02
4.250157077394869920e-02
4.812349821342262746e-02
5.964896486180764484e-02
6.728077486054122314e-02
7.577884207339598277e-02
9.548139435287800181e-02
1.112893786064531182e-01
1.209942463865333884e-01
1.258930842395152294e-01
1.302283555864471587e-01
1.408863344578114296e-01
1.484656621335660176e-01
1.489803978220793634e-01
1.408066405067091853e-01
1.232300081442999073e-01
9.224525846824777053e-02
5.639662650325747567e-02
2.010845617452423906e-02
-1.976842523981256136e-02
-4.677226405649589913e-02
-6.232780517595677694e-02
-7.766074181239290830e-02
-8.202960527198786822e-02
-7.858203656908205326e-02
-7.790812320989964901e-02
-7.721436609848919552e-02
-7.351463370380782736e-02
-6.886619468633523033e-02
-6.777162573354283959e-02
-6.342387358650698748e-02
-5.330809957757245976e-02
-5.602908866077051242e-02
-6.096323688383166461e-02
-5.339919716231514291e-02
-4.746678928134688558e-02
-4.551592583992995072e-02
-4.467762953192892100e-02
-4.255395307679445821e-02
-4.127315894911470079e-02
-4.164113901143064178e-02
-3.897762595425020848e-02
-4.238577935043506134e-02
-4.642370838215927054e-02
-4.543966473387660299e-02
-4.377689900835626119e-02
-4.685111149061207958e-02
-5.040925865008114015e-02
-4.603751774996087121e-02
-4.218303796388050975e-02
-4.193920648589748862e-02
-4.436644355936600337e-02
-4.613084047232451218e-02
-4.073092168327028390e-02
-4.344399617135648317e-02
-4.784131790725924815e-02
-4.171682127014772479e-02
-4.260272995211691893e-02
-4.320730030197507399e-02
-3.924463695187840190e-02
-3.884784775450457472e-02
-3.737186617451586368e-02
-3.901471762783845915e-02
-3.940124006163333442e-02
-3.606231686093252370e-02
-3.827962293963685370e-02
-4.293201498559723328e-02
-3.638874789466200327e-02
-8.491013759832974697e-03
2.182187438081277520e-02
3.481562753837925267e-02
4.455484445021517387e-02
5.328951983923544550e-02
4.730927769101277852e-02
2.714976489749351685e-02
5.520925420713931886e-03
-7.846278695910363990e-03
-1.649728281095721658e-02
-2.971243934339916348e-02
-4.833375899311201374e-02
-5.995713321371353571e-02
-6.959808865859380689e-02
-7.162736403823201370e-02
-5.841731006897169648e-02
-4.998969276280600810e-02
-4.570812957947049254e-02
-1.469077329215739275e-02
6.748633659439073895e-02
1.695548743144277282e-01
2.009989098650406536e-01
1.967199329923275397e-01
7.720921016399810710e-02
-2.754718228584466799e-01
-4.556846191410410807e-01
-2.770160943419552324e-01
-8.048523179428189456e-02
-3.059213002094756523e-03
6.826203948911784523e-03
7.581743996579103258e-03
1.604258328026669789e-02
1.991670725028210978e-02
2.415931513280775850e-02
2.401713727274161839e-02
2.330405408843637047e-02
2.383309253760171331e-02
2.474378000233012562e-02
2.640148627345769231e-02
2.647848123448204305e-02
2.914651405197613704e-02
3.415049676045835841e-02
4.194168092740999804e-02
4.577687538353952812e-02
4.651128542232917107e-02
5.446176314294719906e-02
6.049933857566776318e-02
6.899158328406056195e-02
8.060913347321956024e-02
9.034797345962812531e-02
1.020464363401048513e-01
1.137706505009491026e-01
1.301865027432096422e-01
1.450129270813305671e-01
1.537018338966687214e-01
1.661574723751279847e-01
1.740642531800429549e-01
1.806510576103690646e-01
1.888246195070732991e-01
1.870117161816858553e-01
1.748111709695692184e-01
1.507541166098840257e-01
1.159397107883540362e-01
7.396243470929401986e-02
3.277522785392904953e-02
3.074112753968715091e-03
-1.928772267008558444e-02
-3.662169740156571290e-02
-4.785529722220033255e-02
-5.102423218415100270e-02
-5.138741770676844012e-02
-5.807836097179082391e-02
-6.019677806220083416e-02
-5.504977270044891097e-02
-4.911528171817899913e-02
-4.091888340698419252e-02
-3.674394076851218022e-02
-3.315147574409629816e-02
-2.992327289750189301e-02
-2.950712319988375854e-02
-2.599718809268772995e-02
-2.326064313560333163e-02
-1.933021527005720011e-02
-1.409503119465906409e-02
-1.502417678895798941e-02
-1.779430700084103090e-02
-1.984279387649205348e-02
-2.161122248452600203e-02
-2.530911802574819722e-02
-2.870750262398247959e-02
-2.576457266647284167e-02
-2.615790989991868126e-02
-2.917219452388054857e-02
-2.847929891582544684e-02
-2.891431986066518578e-02
-2.950739799632708105e-02
-3.238039854829902198e-02
-3.367683167629349772e-02
-3.181055031454657622e-02
-3.111596812394632622e-02
-2.949542276185583914e-02
-3.101133917006936372e-02
-2.901359893477222299e-02
-2.432547278040798899e-02
-2.807624094488997413e-02
-2.837154471882745443e-02
-2.714979591415681015e-02
-2.539782707765713896e-02
-2.321196976681493690e-02
-2.945925153308145972e-02
-2.880639950641264088e-02
-2.574981826214296082e-02
-2.985091409094775550e-02
-2.959631176547831283e-02
-2.693207151881052419e-02
-2.592444009141438646e-02
-2.502831175216933129e-02
-2.153272956527876522e-02
-1.892242912779445313e-02
-6.748582138074058628e-03
2.299563012731058176e-02
4.766208068461914166e-02
5.925587909067225878e-02
6.303398860133009596e-02
5.483212704428035850e-02
3.962973787354012734e-02
1.786142041280897041e-02
-2.879868558035796229e-03
-1.090109342588259714e-02
-2.173407347857886709e-02
-4.048654494261721276e-02
-5.359263825333102083e-02
-5.906500349795647253e-02
-5.804792499932871774e-02
-5.134023449193686472e-02
-4.355926144879018747e-02
-4.699311344389917044e-02
-3.437724382715488802e-02
3.319832167415763535e-02
1.418447862810333915e-01
2.164809668850175284e-01
2.289335779514516112e-01
1.796218661527238802e-01
-1.097408872080734010e-01
-4.479348826410910478e-01
-3.978483006262555355e-01
-1.481659039639691977e-01
-1.172983596750759236e-02
1.976820051793018451e-02
1.919366351980890742e-02
2.438874936816861835e-02
2.576502464975926124e-02
2.221872954297878996e-02
2.332495083432006497e-02
2.513437231135854516e-02
2.040302239296606923e-02
1.831974117173517172e-02
2.429604776842814173e-02
3.103548080714823784e-02
3.267366010521078473e-02
3.236240465960919799e-02
3.362443698257870650e-02
3.790555829255279341e-02
4.366965952379495142e-02
4.743143288806148800e-02
5.253580806314923912e-02
5.919138720067126935e-02
6.627713826463046964e-02
7.982085051694262634e-02
9.595883072051519802e-02
1.102764536744095525e-01
1.192111110263635587e-01
1.336392273109298090e-01
1.524428690117362317e-01
1.559037520161287438e-01
1.611177895986980746e-01
1.728250185812290063e-01
1.795608521872730234e-01
1.799058762117786703e-01
1.668388565235859322e-01
1.484902995408084736e-01
1.227145436776164306e-01
8.852365969162868942e-02
5.338846710423794661e-02
1.625534375320224212e-02
-1.061266259872210328e-02
-2.710592915062132180e-02
-4.224599564312375710e-02
-5.479685069209078163e-02
-6.370944302470538112e-02
-6.446899364200402160e-02
-6.348654637883631435e-02
-5.962611125654797978e-02
-5.270271775013116167e-02
-5.317289053241239238e-02
-5.207718988821871675e-02
-4.550839536522882645e-02
-4.104863000515790450e-02
-3.920237581787368308e-02
-3.594494175364602168e-02
-3.032457574617445500e-02
-2.797898151813374423e-02
-2.801141490653178551e-02
-3.064546662423107970e-02
-3.146081452278939178e-02
-2.973992024624598496e-02
-3.705840716662665846e-02
-4.061064873599450065e-02
-3.677535658226564058e-02
-3.771250796469466371e-02
-3.723852061786965539e-02
-3.931262143452591423e-02
-4.200598073250980113e-02
-4.137943776195310286e-02
-4.284170634203346428e-02
-4.104233730022030513e-02
-4.075360024413899468e-02
-3.869433839674499970e-02
-3.483645691375663461e-02
-3.979871451622599837e-02
-4.046261135412411447e-02
-3.701630678196211888e-02
-3.529793196469620253e-02
-3.516044624674017488e-02
-3.904173625129283426e-02
-3.735533331870530271e-02
-3.406999539522404669e-02
-3.179125363540433874e-02
-2.748672103246346810e-02
-2.841779405928711658e-02
-2.870086583797986160e-02
-2.605437903070849728e-02
-2.592538303215529208e-02
-2.865665090742041884e-02
-3.100675440779982611e-02
-2.613430155148980388e-02
-1.645369750803669581e-02
3.398363004400595938e-03
2.835394424883397324e-02
4.053772277349167868e-02
5.300754221758553764e-02
6.277294756144365107e-02
5.019952249996698784e-02
2.687718678158543262e-02
5.202608683134195972e-03
-5.156334815090035661e-03
-1.214714152533333778e-02
-2.829229616944245462e-02
-3.873281066260193112e-02
-5.046432582348908680e-02
-6.124730575213463424e-02
-5.964506472772453105e-02
-5.456183484567315306e-02
-4.447527954482111134e-02
-3.243317017540545827e-02
1.628753946487117776e-03
7.498606587910282284e-02
1.440670512328371955e-01
1.543689284872999945e-01
1.414272935640790985e-01
-1.805137539637289429e-02
-3.375947607434351960e-01
-4.088050554670926151e-01
-2.228150460675109579e-01
-7.701662612772899874e-02
-3.945107803539882850e-03
1.349843033385368131e-02
1.058926983879844574e-02
1.632410640673995911e-02
1.745586338882666039e-02
1.984059539012729412e-02
2.384353056145101235e-02
2.229390449579039812e-02
2.176160141159697026e-02
2.290909915052495582e-02
2.816232603764169673e-02
2.980861117480555766e-02
2.694835579700279385e-02
3.264715834579302867e-02
3.804329576221924386e-02
4.200157705306818701e-02
4.535165431443968775e-02
4.627417609302181267e-02
5.324495990225153186e-02
6.509876927207378094e-02
7.330771988969599084e-02
7.528122351168642368e-02
8.440310026368776086e-02
9.733689638862062787e-02
1.051618298238003457e-01
1.170338564308218560e-01
1.311352413114893201e-01
1.421944081129169757e-01
1.508942216151522575e-01
1.549707971509586280e-01
1.596861810654637281e-01
1.618799574756996096e-01
1.525687019453218773e-01
1.311808569077854980e-01
9.467160479951231000e-02
5.705814604432232762e-02
2.176699536488149039e-02
-1.617698682543177585e-02
-4.196632017156844835e-02
-5.493115416691024544e-02
-6.378347454504072755e-02
-6.703226885330898499e-02
-6.832035090114495224e-02
-6.856605862977253885e-02
-6.286867225180646501e-02
-5.691659073617591491e-02
-5.756150506116273352e-02
-5.605962021596777589e-02
-4.734613250226077374e-02
-4.354356210963658547e-02
-3.950593165506799398e-02
-3.409431807065137904e-02
-3.317660748369568452e-02
-3.176842609349600499e-02
-3.135342106200900147e-02
-3.122353416397793610e-02
-2.980442670372575667e-02
-3.107576868270493786e-02
-3.610456418069355605e-02
-3.645176514257684325e-02
-3.328467117404580733e-02
-3.386635386448058616e-02
-3.600632885734201399e-02
-3.548942475847590566e-02
-3.642242479124743054e-02
-3.818037674435616202e-02
-3.423758124849209800e-02
-2.839938964963991883e-02
-2.797260360711180741e-02
-3.159276276621578172e-02
-3.375810573190671238e-02
-3.568270717183519986e-02
-3.493507280502589074e-02
-3.416594347941642046e-02
-3.807592257799059104e-02
-3.951271514035018667e-02
-3.737483880353786175e-02
-3.772318645945553495e-02
-3.350538822733449551e-02
-2.762135230897290461e-02
-3.294291776077037243e-02
-3.545466668013069755e-02
-2.856929362163318498e-02
-1.437463919303834207e-02
1.056145531884142286e-02
3.409198843174802290e-02
4.771615000194444345e-02
5.771248604672224447e-02
6.043436769448946866e-02
4.776790476021264970e-02
3.527200558296821054e-02
1.981418174561765111e-02
-1.651694678824501593e-03
-1.335372476888544574e-02
-2.804450909516444448e-02
-4.813276067093950200e-02
-5.676140444881586783e-02
-5.575558102095310581e-02
-4.852176110272418685e-02
-4.391766929451032531e-02
-4.465040296660472557e-02
-4.132198383898402078e-02
-6.395759261711802396e-03
8.756750056077146349e-02
1.901403923845436383e-01
2.181169684735705661e-01
2.153718049525010780e-01
6.792483936333518213e-02
-3.019198969289632051e-01
-4.537458301857927312e-01
-2.554434466812144366e-01
-5.964797256467052611e-02
1.680435278380736433e-02
2.407719629011947915e-02
1.561868122736360248e-02
2.197979983440857127e-02
2.840787341190366758e-02
2.950535852425668903e-02
3.290460523045928704e-02
3.230980102284528033e-02
3.612293325637192659e-02
4.141782605921823235e-02
3.800517413353490803e-02
3.743643533716168453e-02
4.145033919911046000e-02
4.776242049138210155e-02
5.506534074553614405e-02
6.124212602370848746e-02
6.385428420304831154e-02
6.673462767207559432e-02
7.814627160992709820e-02
8.933581480770190486e-02
9.379726845347788333e-02
1.024337658153259278e-01
1.166257037387416901e-01
1.359175771316570025e-01
1.469925802308184037e-01
1.523322113277072176e-01
1.693687884955658862e-01
1.814911103930326453e-01
1.895147146693655360e-01
1.965316243535646379e-01
1.976367829600428339e-01
1.966745137368653973e-01
1.813910130120561237e-01
1.547706386691654612e-01
1.221168732001817886e-01
8.173779935127518936e-02
3.966965902841668168e-02
3.773775696684500067e-03
-1.715616210827964824e-02
-3.256073363782423929e-02
-4.406392279571497844e-02
-3.928255537899828093e-02
-4.070353688390991598e-02
-5.147499298303318677e-02
-4.872449019966258038e-02
-3.746656924536752309e-02
-3.170806606527729055e-02
-3.358235410043274721e-02
-2.963198554427548537e-02
-2.328253379564097780e-02
-2.048121603147954467e-02
-1.755421674173548649e-02
-1.687812782537598602e-02
-1.382167229624022865e-02
-1.054156645909682874e-02
-8.143080194027593061e-03
-7.708282671343867978e-03
-9.116536341605639346e-03
-4.646183355014465652e-03
-9.638695570520189326e-03
-2.177495717835947753e-02
-1.661394806895133414e-02
-1.081652406021225109e-02
-1.497978592887145959e-02
-1.520098095724044945e-02
-1.626035899249910627e-02
-1.626261714834301847e-02
-1.174282171291406336e-02
-1.215722029610195529e-02
-1.380708853749434278e-02
-1.176530374160063633e-02
-9.391525064846015236e-03
-8.290105504165486139e-03
-9.520291712597547112e-03
-8.355042231885262752e-03
-7.421188146029070350e-03
-9.310047441344495786e-03
-1.222513416344351948e-02
-1.308313388152461398e-02
-9.670610884501268725e-03
-5.508915896869170589e-03
-3.031843007434479893e-03
-6.657802098357624120e-03
-6.755097848463018431e-03
-1.237558441977897137e-03
-6.967972492963454790e-04
-1.485268163788622297e-03
-2.956356760367250328e-03
-2.610893630280722126e-03
9.435513597339887379e-04
1.320906808708251353e-03
1.013836349144783822e-02
3.503879689896877841e-02
6.119317078768923834e-02
7.688324041160986277e-02
8.849930979401296471e-02
9.347185912459814172e-02
7.223626211305624045e-02
4.723575912086086515e-02
3.596275926135954204e-02
2.543591797912476277e-02
1.248838271069716011e-02
-6.366732324454613297e-03
-2.123206621743470301e-02
-2.723293840330859306e-02
-2.972977622511018339e-02
-2.822828832424383039e-02
-2.376980260689114111e-02
-1.816429104430132557e-02
-1.034697914942627611e-02
2.978152383786456664e-02
1.301537489610504195e-01
2.289345020893849281e-01
2.525573773782219811e-01
2.417192630907750994e-01
4.553642560595778932e-02
-3.388891897609223047e-01
-4.320865704151661824e-01
-1.977062645796995310e-01
-6.210181092971994200e-03
5.093508728452511569e-02
4.107454207173811406e-02
3.385631830073589088e-02
4.041632930121112632e-02
4.130777540764937056e-02
4.169171035839355777e-02
4.876809922793359786e-02
5.457219173023646758e-02
5.526973637383330445e-02
5.061052005094801576e-02
4.610829715117410743e-02
4.892517677618934968e-02
5.755381444864611507e-02
6.656832174141170955e-02
6.789499679723731695e-02
6.873657369037111664e-02
7.813246129961706754e-02
8.243394434062976950e-02
8.757167097933854505e-02
1.009417904663332255e-01
1.029150872732282479e-01
1.021703549477175621e-01
1.116201659588166584e-01
1.257788066502502911e-01
1.400791703747293893e-01
1.529004670671529897e-01
1.684826956445828194e-01
1.804123489455080886e-01
1.888399107140706357e-01
1.980608536907025596e-01
2.010011980262184361e-01
1.948904655843838318e-01
1.778710671550845501e-01
1.537265389972873875e-01
1.220188271220893350e-01
8.255651986185795488e-02
4.305912259653867785e-02
8.171070036605816364e-03
-1.316105897244841151e-02
-2.441382297418051572e-02
-3.634038894397789016e-02
-4.760820629474348670e-02
-5.121403547109776300e-02
-4.621268744850351440e-02
-4.380707986895712724e-02
-4.361671419701487751e-02
-3.945166770401140055e-02
-3.334435597661261630e-02
-2.798769471600223366e-02
-2.468391547367948871e-02
-2.328978143173970547e-02
-2.278815868802685704e-02
-2.438465604142501381e-02
-2.142365019121410252e-02
-1.484902164055749464e-02
-1.269224553826794714e-02
-1.325808306935521812e-02
-1.659583324605075697e-02
-1.513480307685802217e-02
-1.358446973753779478e-02
-1.750311081029095814e-02
-1.464422541036192529e-02
-1.548538496038893812e-02
-2.284179506428450634e-02
-2.406257722705715252e-02
-2.030461382593131206e-02
-1.772618040495039723e-02
-1.938772644688521035e-02
-1.706046873070029765e-02
-1.392778378291172070e-02
-1.708225907346372363e-02
-1.802592868236151460e-02
-1.936400043779699931e-02
-2.501951390435219746e-02
-2.632974471874493724e-02
-2.138973670689266193e-02
-1.744486168612256402e-02
-1.678795421417908149e-02
-1.840222605195908356e-02
-2.307800431764006621e-02
-1.980654557987428233e-02
-1.367466828195682861e-02
-2.121593103266188052e-02
-2.553598065249026994e-02
-2.267429489682902533e-02
-2.458987704445891528e-02
-2.328244256718661059e-02
-1.945709245231216217e-02
-1.795170265083046932e-02
-1.446538010238236464e-02
-9.517275479584384745e-03
8.246236074752151188e-03
3.398794437509528726e-02
4.896129841290151885e-02
5.861186472300958933e-02
6.762218874184980355e-02
6.372836994629137164e-02
5.224381059256832938e-02
3.642679912258763725e-02
1.023069297686528788e-02
-4.439907244497900106e-03
-1.026298605075554732e-02
-2.364641963048816006e-02
-3.127740029231029784e-02
-3.727165739884526902e-02
-3.634326045520604176e-02
-3.077803811141542958e-02
-3.267385783940945226e-02
-2.725850453365922382e-02
2.418762924738209266e-03
7.099482693320149918e-02
1.540249171458145661e-01
1.758368238197634548e-01
1.778947841067849700e-01
9.046349964686055400e-02
-2.231757037132337251e-01
-4.002270914098028931e-01
-2.534506300238983934e-01
-8.428391468664321595e-02
1.023791198031561225e-02
4.408149074639979709e-02
3.335506023799610781e-02
3.236613877235779146e-02
4.395315942891453442e-02
5.186892683795686632e-02
5.311162261211149760e-02
5.197665992143665759e-02
5.162355968772594506e-02
5.473700670191151973e-02
5.406807290265891464e-02
5.634664319135477412e-02
6.327950929991614515e-02
6.264855759074514086e-02
6.221783923515530890e-02
7.347088927611009068e-02
7.769315992778765001e-02
7.034351372940975122e-02
7.486453637256397509e-02
8.997679662212595963e-02
9.939176556326888290e-02
1.068331555021150153e-01
1.147316927584213220e-01
1.226766735027738919e-01
1.340109895964815834e-01
1.440812397656100752e-01
1.535568015454916724e-01
1.663408540406126623e-01
1.740693220532907315e-01
1.824191090158168160e-01
1.898723585188495933e-01
1.878247034107468072e-01
1.805576585525866251e-01
1.594719783331534635e-01
1.306618948391281843e-01
9.812928567002177083e-02
5.360413828429488881e-02
1.852596336719238707e-02
-7.269864385821118991e-03
-3.018309604482700276e-02
-3.935294870308375659e-02
-4.294367046309140179e-02
-4.762879462707708678e-02
-4.946492865349200879e-02
-4.899598749169415540e-02
-4.574934904675304059e-02
-3.934705489122406613e-02
-3.369942841013112006e-02
-3.255903885586908936e-02
-3.042625826209986728e-02
-2.288243867614337887e-02
-1.755380135495498636e-02
-1.935646510036206566e-02
-2.427242561202475057e-02
-1.943976842496329682e-02
-1.237430592958267857e-02
-1.737532512832270018e-02
-2.133699351912242761e-02
-2.052976560392248684e-02
-1.742026069644907540e-02
-1.755274749920956306e-02
-2.062788116222106019e-02
-1.981311099124847402e-02
-2.137943828663269041e-02
-2.151467843361077811e-02
-2.157717319481391657e-02
-2.051230430647092012e-02
-1.614227682548934756e-02
-1.722852543545468768e-02
-1.487767444877797531e-02
-1.601666032427379038e-02
-2.130086313183641306e-02
-1.729516607863803429e-02
-1.493555728665118924e-02
-1.432331739561824163e-02
-1.323340356170266997e-02
-1.465778905510672914e-02
-1.694252884410615140e-02
-1.853844712305790371e-02
-1.725102209637311215e-02
-1.622015523061633505e-02
-1.374264203069491645e-02
-1.070587268522143164e-02
-1.258631175118276116e-02
-1.360286101940260707e-02
-1.318347090732686910e-02
-1.713843865831675417e-02
-1.666074377924378971e-02
-6.420154543377318800e-03
1.771741103924185171e-02
4.453573526142855232e-02
6.020996161576063627e-02
6.942820279953466900e-02
7.035306436158898780e-02
6.333183594954211459e-02
5.059822405412059410e-02
3.689339218244860191e-02
2.095832715838596982e-02
4.556623073033934899e-03
-7.001764059854588898e-03
-1.957711929926621297e-02
-2.622046888892090241e-02
-3.169109680684113750e-02
-3.673950694019436497e-02
-2.706728932600389187e-02
-1.612547988854954803e-02
-1.318937693103383949e-02
2.243566131857903032e-02
1.149065353993470179e-01
2.128583338580972151e-01
2.417125861372190210e-01
2.464297628745592272e-01
9.946251942847875172e-02
-2.850344784448565760e-01
-4.419017006505413514e-01
-2.366430153894336363e-01
-3.720490040564683465e-02
3.653903996795493381e-02
3.804597474271573243e-02
2.929921642221966493e-02
3.398517863417717388e-02
4.234397522458431540e-02
4.683961451661157460e-02
4.187575516525476882e-02
4.318976523283013513e-02
4.582832681995523821e-02
4.186870511512037069e-02
4.596360559856626365e-02
4.832665911560448530e-02
4.896679868990437556e-02
5.396377763867504784e-02
5.675673260014990618e-02
6.200562058117430747e-02
6.624486526757142335e-02
7.065560672051617030e-02
7.819084108424778634e-02
8.678900296190170116e-02
9.821141494313051501e-02
1.058873036269973311e-01
1.157585062583706831e-01
1.300038248911912220e-01
1.388649262017480346e-01
1.519207799357402688e-01
1.673021647345896701e-01
1.766695789195554811e-01
1.867935430904810457e-01
1.966020032833258879e-01
2.026369201118124741e-01
1.987288301790806067e-01
1.853173558577296820e-01
1.616214728557043012e-01
1.241282148100937288e-01
8.438363165401600863e-02
4.263196972442224314e-02
4.847477916018659572e-03
-1.724030077686414253e-02
-2.997298589009764203e-02
-3.793891587546557864e-02
-4.547828496780131902e-02
-5.148981980754006177e-02
-5.237210376805750273e-02
-5.226860005935671932e-02
-4.898954076687638687e-02
-4.155961067857938396e-02
-3.551519425364808857e-02
-3.355198798043041580e-02
-3.054024383580782390e-02
-2.473371652392362258e-02
-2.265648177513461883e-02
-1.939161475170478321e-02
-1.176165202459880307e-02
-9.084242575857623056e-03
-1.404038431037898417e-02
-1.631513550435185339e-02
-1.320748718687129487e-02
-1.186304978384375257e-02
-1.302920912508099063e-02
-1.708769536264434855e-02
-2.154783748462775830e-02
-1.962303005510465659e-02
-1.692322534783911869e-02
-1.825532859717303794e-02
-1.865496832697832730e-02
-2.110907166110090674e-02
-2.559535582320870972e-02
-2.659124437955156725e-02
-2.466757469374353945e-02
-2.201175672617258772e-02
-2.381892508541350040e-02
-2.211035962277696498e-02
-1.774507262990809853e-02
-2.187135936884221712e-02
-2.326658194912503003e-02
-2.357668582453218559e-02
-2.217904953889766190e-02
-1.672695781348100541e-02
-1.378153727064440441e-02
-1.416150208684960159e-02
-2.057903359945366384e-02
-1.906731920220540097e-02
-1.167302913283515056e-02
-1.430947113747213853e-02
-2.037956228612652215e-02
-2.171540609296182880e-02
-1.619138863202010392e-02
-1.318601936267497360e-02
-1.468239465152558314e-02
-1.223827534658971684e-02
-1.237947690688956425e-03
2.543411415076984872e-02
5.144944440672344355e-02
6.005465636518873135e-02
6.913607202061668178e-02
6.876253883068192407e-02
5.388416402971570041e-02
3.941948422749189107e-02
2.192994695611103634e-02
1.112786395010887178e-02
1.975345274105154035e-04
-1.728564715446702024e-02
-3.080082096846693124e-02
-4.240363016188709172e-02
-4.199611975172765077e-02
-3.430362905684822966e-02
-3.142458606929643405e-02
-3.382225820400694416e-02
-2.530428333499367896e-02
3.261516297490298782e-02
1.373935138582863258e-01
2.190581394140942995e-01
2.407583076962647728e-01
2.174660415068295216e-01
-3.485429587329182816e-02
-4.132581480497060089e-01
-4.292428926280320578e-01
-1.738439421541726204e-01
-1.202369769879019744e-02
2.623610450836260863e-02
1.862983204189906303e-02
1.533221736569379857e-02
2.113526356148345484e-02
2.921053194146058449e-02
3.677691665091386425e-02
4.160194194499895748e-02
4.110583943143825136e-02
3.685368430502380943e-02
3.456988154355647436e-02
3.856700256581951924e-02
4.106395941029151314e-02
4.000087904455473797e-02
4.050989820468128833e-02
4.579132289256007682e-02
5.384492887280631357e-02
5.505237890968074643e-02
5.863143964261916669e-02
6.891507536715099635e-02
7.601000871764464206e-02
8.418413496111515348e-02
9.200264979140666821e-02
1.035464171637424241e-01
1.167612465404426897e-01
1.276114905006313638e-01
1.437672285831761987e-01
1.575093088970215272e-01
1.681027122101263482e-01
1.774020665226221372e-01
1.788924858015994435e-01
1.820579946006696259e-01
1.802665466889258050e-01
1.646787132931570585e-01
1.386216440985025555e-01
9.867741386356893019e-02
5.687173204873812588e-02
2.128368295158750145e-02
-9.660180834166131117e-03
-3.119140938070409652e-02
-4.449960453448829900e-02
-5.412553718777110556e-02
-6.085878475779697011e-02
-6.230866362129842267e-02
-6.179936099845626668e-02
-5.837606948814612340e-02
-5.573673243748066691e-02
-5.581860962378912966e-02
-5.034522933882265572e-02
-4.473774711860728504e-02
-4.338038109313022139e-02
-4.399647837697805153e-02
-4.383009941837989754e-02
-3.740261768642510337e-02
-2.965949659756119891e-02
-2.897720973155604868e-02
-3.269216688946563476e-02
-3.479441530332368776e-02
-3.185597336876110769e-02
-3.384792738466971956e-02
-4.025391707932304830e-02
-4.004579391361369478e-02
-4.325857094466824954e-02
-4.332964449205875535e-02
-4.016485834903282121e-02
-4.346273620805445742e-02
-4.309179457358514043e-02
-3.945212172732396466e-02
-3.794843487430612367e-02
-4.075546470291526585e-02
-4.654543924995840215e-02
-4.390769425949152954e-02
-3.926363810856926817e-02
-4.190235415117149476e-02
-4.118691753796748650e-02
-3.748696727704946968e-02
-3.590241616491540028e-02
-3.232979721638792187e-02
-3.286939904604987278e-02
-3.996372457683947110e-02
-4.411454931959474246e-02
-3.890372993782043043e-02
-3.322994651103251124e-02
-3.463800621559504772e-02
-3.540185430012796064e-02
-3.578255518060524665e-02
-3.663105316866360067e-02
-3.416728038008950974e-02
-3.106159654576957224e-02
-3.055478459286161200e-02
-2.408716951185088662e-02
4.334409887991157173e-04
1.888491118929895227e-02
3.091477303709716171e-02
4.874878654953435086e-02
5.484314791700704156e-02
4.986353437184816439e-02
4.022453641803305779e-02
2.598103298227830843e-02
7.676830586434934406e-03
-8.475243317398918272e-03
-2.084818724886760774e-02
-3.921518621185643427e-02
-5.060619337610836044e-02
-5.387621142227222437e-02
-5.564480498396864872e-02
-4.884697448727019081e-02
-4.133876279106554058e-02
-3.953121983888234492e-02
-1.795045672239226411e-02
4.865625096340808753e-02
1.385864068410498917e-01
1.701483877580612647e-01
1.691095914632632646e-01
6.858458410550283268e-02
-2.593270144850797210e-01
-4.385338318048248585e-01
-2.820569977330319444e-01
-1.096963339091666101e-01
-2.114788536091800897e-02
1.452696389770753542e-02
1.495126979960326868e-02
1.452870044219348872e-02
1.649699047494911086e-02
1.917105480590445762e-02
2.263619898857651205e-02
2.929152628006119821e-02
2.966654541607462517e-02
2.822232188558609564e-02
2.975917936557647900e-02
2.910681833970322346e-02
3.290642034827094553e-02
3.654176518704137927e-02
3.795970620366257570e-02
4.363022996762588868e-02
4.612840495194173163e-02
5.002026505022804520e-02
5.717179204188915786e-02
6.306867678301186775e-02
7.138058048305771786e-02
8.078354485794191076e-02
8.626895600052708613e-02
9.432166357634991227e-02
1.108186498473310161e-01
1.239932367109607275e-01
1.324839997581536422e-01
1.443124937204382785e-01
1.496141021229119850e-01
1.549371393038462552e-01
1.635015004990565957e-01
1.648986497797208517e-01
1.632327208376914973e-01
1.469262656925394983e-01
1.135722092838146874e-01
7.808538319604213518e-02
3.871642664661834043e-02
4.827554588780882082e-03
-2.014907255576752973e-02
-3.964623688814346292e-02
-5.125830113863871079e-02
-6.079677362458433404e-02
-6.733051658898324410e-02
-6.979554629052092674e-02
-7.070826529702328722e-02
-6.738920179058120741e-02
-6.132420931762803257e-02
-5.606425128847127015e-02
-5.298313211605699957e-02
-5.155760950646174484e-02
-5.192740484478539781e-02
-5.319346552079756013e-02
-4.790471386536473281e-02
-4.148106699502406708e-02
-3.944975929906153339e-02
-3.795480981695254635e-02
-4.054932072306095814e-02
-4.070736140005151715e-02
-3.971785538038399843e-02
-4.476554326340397710e-02
-4.820706428912697322e-02
-4.580004177092206197e-02
-4.433698873988032446e-02
-4.618297441848413093e-02
-4.791766756114913817e-02
-5.277843104682866660e-02
-5.348205121990434047e-02
-4.489700390004663921e-02
-4.325866655473441236e-02
-4.594419145922232911e-02
-4.488057233113553618e-02
-4.542637248011134610e-02
-4.263285477639353754e-02
-4.061594533119462086e-02
-4.070005240445107725e-02
-3.589662734273520867e-02
-3.751401222023381665e-02
-4.247982314013434846e-02
-3.966573711593411600e-02
-3.609379568671918642e-02
-3.722151406464223322e-02
-3.843602916082482918e-02
-3.334713226992289808e-02
-3.374876828262328432e-02
-3.340962551757437754e-02
-5.686986068877372333e-03
2.662872853639064105e-02
4.047050263880740822e-02
4.591628158509723778e-02
4.956653354166020570e-02
4.149248806608391016e-02
2.386734361779396796e-02
1.163809807728477530e-02
-2.808432087573649858e-04
-9.950649773219834293e-03
-2.196752875858911172e-02
-4.553927922744843704e-02
-5.877895961779761036e-02
-5.752403542777528855e-02
-5.033657634916797324e-02
-4.577405464330100426e-02
-4.559456950048235840e-02
-3.935551092927536132e-02
-1.483710797564417731e-04
9.612345199504568338e-02
1.996516499271498435e-01
2.259836711255498176e-01
2.214934642489409244e-01
5.737032466613187220e-02
-3.294430827964660580e-01
-4.672607144571756521e-01
-2.560147225473972665e-01
-6.297620564049323522e-02
1.017281010222302086e-02
1.532791658980186926e-02
8.132217695526498119e-03
1.419692164241154533e-02
1.962155768745753315e-02
1.839917680311346435e-02
2.025306934784951163e-02
2.152571953368436278e-02
2.529493095115719833e-02
2.770017651691794244e-02
2.192001596571703168e-02
2.399880103824179878e-02
2.898988570851337640e-02
3.139112414800710599e-02
4.129113576770401112e-02
4.462604367030320596e-02
4.288306422513449290e-02
4.896019173465058355e-02
5.529505688056705198e-02
6.473072989567549285e-02
7.412736119163927662e-02
7.865836780203754042e-02
8.719240529226240932e-02
9.752236012393153408e-02
1.093497875651472245e-01
1.269693659130392838e-01
1.423527638498127412e-01
1.529565909718304806e-01
1.620639311214297218e-01
1.708569729615919963e-01
1.756143329064797920e-01
1.724921456966087008e-01
1.623378959806734134e-01
1.399209802081331222e-01
1.062479168785176314e-01
6.120712893077182026e-02
1.673626428749283926e-02
-1.057345454702245981e-02
-3.146707451149996504e-02
-5.674535515109002670e-02
-7.525929423035727928e-02
-7.507914786020734865e-02
-7.160271624483682817e-02
-7.567773604073264881e-02
-7.362520326770707890e-02
-6.639749380409241952e-02
-6.459660296988604944e-02
-6.468207198069043928e-02
-5.967541214460714283e-02
-5.212298442339417109e-02
-4.741689398653947674e-02
-4.395833881043147151e-02
-4.139933401667947321e-02
-4.025365157087332918e-02
-3.947672941727223966e-02
-4.216216292543002037e-02
-4.284639273248450064e-02
-3.899383605624762855e-02
-3.975803320372817140e-02
-4.176346440482486128e-02
-3.998170224285160779e-02
-3.776100014823637746e-02
-4.121624135782869791e-02
-4.860563839447003959e-02
-4.773176092367922146e-02
-4.302509460580583589e-02
-4.092843558593421693e-02
-4.311615413469555014e-02
-4.710060492249407843e-02
-4.999046201862584332e-02
-5.345427632721523603e-02
-5.185669509878861050e-02
-4.801536517617911726e-02
-4.871276152672274207e-02
-4.878231125108203892e-02
-4.701598878387245467e-02
-4.368915704734582794e-02
-4.299763034238693327e-02
-4.348601450169752719e-02
-4.248581445587707589e-02
-4.339882793872278793e-02
-4.305331587913244218e-02
-4.100809019638337882e-02
-3.792285813349773743e-02
-3.212802842530360081e-02
-2.535278451542488307e-02
-8.685100207884557943e-03
1.858127499972917970e-02
3.967277290454529481e-02
4.917095766999869666e-02
5.504208477608244637e-02
4.819048546535026345e-02
3.078693431321447016e-02
1.112058914641179952e-02
-5.481268048695701195e-03
-1.392567642951461453e-02
-2.491465625829307473e-02
-4.385599974813161189e-02
-5.927271973048822695e-02
-6.217139645276647392e-02
-5.681922584143492966e-02
-5.375840834128569473e-02
-5.033663688203751652e-02
-4.820351925677374139e-02
-1.899040254411716450e-02
5.936809717597500008e-02
1.679390865610355110e-01
2.273330400969817422e-01
2.323757498903495089e-01
1.322292746004679331e-01
-2.315420910901626605e-01
-4.982721122025278726e-01
-3.458247158481728700e-01
-1.023949571054297708e-01
3.000914032006793842e-03
1.560744516651206906e-02
9.453555690443411416e-03
1.328297532004945637e-02
1.758185507049684834e-02
2.285782897041696571e-02
2.380135484682465580e-02
1.968856395020246453e-02
1.754465767527854658e-02
1.834620226293387155e-02
2.469801230953328278e-02
2.699689647112208518e-02
2.284085195091965781e-02
2.772635238403731855e-02
3.204830459848565655e-02
3.007400911083966261e-02
3.438266301697887745e-02
4.086368785504181089e-02
4.936917125030319126e-02
5.743166469655211492e-02
6.199007512781277290e-02
7.169983555386798268e-02
8.359780846090393569e-02
9.314305461862704139e-02
1.023854196985169995e-01
1.205523744704648376e-01
1.387748083575119640e-01
1.502043495504347126e-01
1.611918055374871594e-01
1.638105450101713378e-01
1.620034017771843082e-01
1.628898799777779294e-01
1.610039812623621225e-01
1.437771599047219240e-01
1.051285251777490104e-01
5.917652883221038995e-02
2.096796557150740203e-02
-6.303512706269762123e-03
-2.961881050858880537e-02
-5.157034144865586811e-02
-6.506331035100808291e-02
-7.607016222113407999e-02
-8.137923280375487789e-02
-7.731549249487994213e-02
-7.383480751909950179e-02
-7.284636353464551961e-02
-7.240797703951920572e-02
-6.141957056066900400e-02
-4.940578454906818101e-02
-5.151960605006770250e-02
-4.971758739592298248e-02
-4.843008300849990788e-02
-5.165062137083086674e-02
-4.673239789365104396e-02
-4.394683183041423608e-02
-4.285302684891707792e-02
-4.030282327191644920e-02
-4.125756257549374750e-02
-4.284363582007835736e-02
-4.741326372165646785e-02
-5.135431552332857946e-02
-4.918685054680418250e-02
-4.303955527751062576e-02
-4.316055877028215221e-02
-5.115754129593502036e-02
-5.337144755787468636e-02
-5.175505426361842048e-02
-4.839411269339477517e-02
-4.600722500207356930e-02
-5.405985119031586628e-02
-5.674065654171666501e-02
-5.266176122128155696e-02
-5.144229861284480704e-02
-4.783061895592668339e-02
-4.814201051449673585e-02
-5.130082615614405678e-02
-5.188378315129288376e-02
-5.228714346518507222e-02
-5.046213034991108709e-02
-4.920498590142896589e-02
-4.945082003098889151e-02
-5.055883697671764709e-02
-4.973355027430814701e-02
-4.220442134982060195e-02
-2.301096957078511279e-02
4.335108274337923749e-03
1.963851332567755417e-02
2.928232797509847107e-02
4.284782876427536968e-02
3.979960691652528748e-02
1.867034061189107308e-02
-4.330581013155800248e-03
-1.856664261081754710e-02
-3.045570501696717378e-02
-4.892254755260939947e-02
-6.510569469445799673e-02
-7.891353038930952468e-02
-8.262362710926859921e-02
-7.118264336949503557e-02
-6.724390217656642244e-02
-6.499120655512070910e-02
-6.079664331860323151e-02
-3.314363352917455013e-02
4.560547132980636437e-02
1.284179360373502998e-01
1.443661893025965093e-01
1.356063480273312083e-01
3.949510290718540213e-03
-3.371144408999481312e-01
-4.768014583011240259e-01
-2.919432038944556052e-01
-1.165549054583611133e-01
-2.852871913853299510e-02
2.111904256899119550e-03
-2.932495889350789000e-03
-2.082011263226804434e-03
3.931714231460253089e-03
9.448957338392261276e-03
1.585510912906186107e-02
2.092349354104705572e-02
2.215306236144662377e-02
1.668312950195144015e-02
1.410427314588506842e-02
1.840701135599562277e-02
2.327874890626211238e-02
3.070342052169619529e-02
3.404205385846299781e-02
3.416052271642565363e-02
4.245368744064504513e-02
4.817361998719892069e-02
4.878992723850279073e-02
5.792546284633390274e-02
6.788360092122711076e-02
7.308312144610694394e-02
8.296426373035800661e-02
9.605103903484545069e-02
1.108870771593467169e-01
1.253611931368561472e-01
1.306635224524409500e-01
1.368107558017133407e-01
1.502788588290385474e-01
1.572912862619906260e-01
1.614373836579989230e-01
1.627129320216778863e-01
1.496988505522520996e-01
1.297179279625667037e-01
9.706543299958807214e-02
5.453468137178743569e-02
1.605805251534258085e-02
-1.488714771428993437e-02
-3.242977556235204090e-02
-4.508766475105285831e-02
-5.618362156369847288e-02
-6.791672090240401249e-02
-7.657040368208806180e-02
-6.982048172571712896e-02
-6.202806725186187781e-02
-5.971548428294153749e-02
-5.759233084390972396e-02
-5.597383141330173478e-02
-5.229125943663731624e-02
-4.856441454855520146e-02
-4.472199777010799071e-02
-3.885434197351435998e-02
-3.743011098467729364e-02
-3.828126473481394121e-02
-4.020453845815564337e-02
-4.047776304208309389e-02
-3.734967183078326258e-02
-4.086420081285613293e-02
-4.310040520071660441e-02
-3.672360798782666608e-02
-3.597826413743884788e-02
-4.220841742547202374e-02
-4.270859244811675559e-02
-3.885161513357678065e-02
-3.911665522266748185e-02
-3.986884446152478417e-02
-4.090511138500906030e-02
-3.927221255217502871e-02
-3.356788280858705870e-02
-3.762324589050230345e-02
-4.123784257508344986e-02
-3.549044395834918125e-02
-3.565159533529005387e-02
-3.764696002800876906e-02
-3.506879533905046115e-02
-2.980457187520610396e-02
-2.885266897306287479e-02
-3.452839558415048832e-02
-3.420589023799643774e-02
-2.616413398615293970e-02
-1.210735671423917767e-04
3.521287629053398288e-02
4.876268871401864824e-02
5.249719147975051570e-02
5.775933104197710638e-02
5.073903548073314257e-02
3.432782456903837182e-02
1.486858983116967625e-02
2.361731178481616799e-04
-1.086247580364616168e-02
-2.656313101399467025e-02
-4.566786352316838660e-02
-5.664946304605600336e-02
-5.415202493098426884e-02
-4.909505555993504827e-02
-5.054170413715916577e-02
-4.738155585595125313e-02
-3.802359526924287136e-02
-2.467912935283796648e-03
8.241829013602003373e-02
1.864713521892763792e-01
2.290650726069667908e-01
2.380250438414174274e-01
1.233110905971231130e-01
-2.649095564228513555e-01
-4.951976642700211539e-01
-3.106334386000406678e-01
-8.422881537266077578e-02
6.797362996280018055e-03
1.907051058263927248e-02
1.220845700995996756e-02
1.634093660377431909e-02
2.258547573168694089e-02
2.653207393091767952e-02
2.724614300423636171e-02
2.859623927769633367e-02
2.979209983973181777e-02
2.714739449811768429e-02
2.734038088121981333e-02
3.085534054592295461e-02
4.021617459633536340e-02
4.467224838128106001e-02
3.786231897935121715e-02
4.307888161133646698e-02
5.164997899068138332e-02
5.470699735298883981e-02
6.085180016612145443e-02
6.645151082142207455e-02
7.520110786001016345e-02
8.731029582076321738e-02
9.727665542302078860e-02
1.068231506506865935e-01
1.215038395991947795e-01
1.379494206478054374e-01
1.472297960840283915e-01
1.592187217937813815e-01
1.746214113397409062e-01
1.828919654329344002e-01
1.884482770682940345e-01
1.812528109311450919e-01
1.640282042103913540e-01
1.419628891241746516e-01
1.040642470713970535e-01
6.451350444828390929e-02
2.918594204248398799e-02
-5.361887181747054983e-03
-3.076060242006179585e-02
-4.463618495733462366e-02
-5.544310216530608237e-02
-6.424663232381659650e-02
-6.470705244076373208e-02
-6.470061189650325173e-02
-6.500300935546708681e-02
-6.045067814186170368e-02
-5.744776051132943762e-02
-5.138921920919745090e-02
-4.682490735277679283e-02
-4.842733503981802579e-02
-4.243513289708258918e-02
-3.539270742012747689e-02
-3.234628111455156718e-02
-2.998124544621560972e-02
-3.104925407343758423e-02
-2.911039781884191754e-02
-2.769557646086171637e-02
-3.361901826763120243e-02
-3.708120007196338136e-02
-3.385997768170673911e-02
-3.055839559130315783e-02
-3.461562974047212998e-02
-3.859498745064296465e-02
-3.752587783665229521e-02
-3.914356931499993197e-02
-3.809542819086355475e-02
-3.566651094251638981e-02
-3.434086783122888148e-02
-3.648774173551305733e-02
-4.181949276754649142e-02
-3.507829299278023005e-02
-3.228720941369738612e-02
-3.769903218995699495e-02
-3.444617755604944404e-02
-3.377591850022480802e-02
-3.400544735230021098e-02
-2.881864393525861504e-02
-3.220400210683505710e-02
-3.721874777949193275e-02
-3.478555130533570600e-02
-3.320774322136301610e-02
-3.645924126448454178e-02
-2.019229273176206818e-02
1.865173418717250287e-02
4.254724263220367036e-02
5.021779425693825849e-02
6.137312666970007324e-02
6.211907324963827914e-02
3.786806518896673746e-02
1.069189509762229900e-02
-3.314336835580567603e-03
-1.196257488958217541e-02
-1.951646582206894784e-02
-3.565611317803236285e-02
-5.532733391566590359e-02
-6.127255192730614308e-02
-5.934356322433176345e-02
-6.062557900544444239e-02
-5.623170137592337081e-02
-5.073553068685485168e-02
-3.791373336105688385e-02
1.805539450406617660e-02
1.263529617079313938e-01
2.166318056626221900e-01
2.402672022407783270e-01
2.089263011256310421e-01
-7.186097274229993892e-02
-4.650937785594010387e-01
-4.588488020189065431e-01
-1.807352000612697795e-01
-1.053413367481338681e-02
2.468069154426440204e-02
1.536951095670965189e-02
1.774266329827079922e-02
2.094284742408642624e-02
2.190772046332727097e-02
2.959519014710702139e-02
3.210573708066940396e-02
2.359762880914276217e-02
2.146713050265243450e-02
2.910673632871671121e-02
3.103067282005860308e-02
3.157847096303656453e-02
3.653596761723407194e-02
3.451236426789753425e-02
3.836151676035717828e-02
4.796130351530486502e-02
5.086903725671883258e-02
5.499959201122683189e-02
6.191165188485139859e-02
6.909187214240133934e-02
7.639143996081820820e-02
8.739027009938371560e-02
1.002703104568496290e-01
1.116341914190569495e-01
1.255471528779529000e-01
1.387845226269354693e-01
1.505623782170445457e-01
1.586650337464404759e-01
1.657853008703539521e-01
1.788478158084776670e-01
1.833155188202564012e-01
1.718310187009075563e-01
1.512170885277197563e-01
1.198953772317368494e-01
8.102962542792863099e-02
4.149396800043895356e-02
6.213367093753176251e-03
-2.096394311153280260e-02
-4.175098082469455574e-02
-5.250210303768362841e-02
-5.820059073282535245e-02
-6.723954634304030176e-02
-6.674301774912159979e-02
-6.012985025688410284e-02
-5.892994892882463809e-02
-5.785932522060582145e-02
-5.571878349924744983e-02
-5.138364007973292291e-02
-4.734989007773124370e-02
-4.722108229123535283e-02
-4.973099485163819805e-02
-5.166183939468352998e-02
-5.116479907601272775e-02
-4.929460211183083612e-02
-4.535731044419857166e-02
-4.750176977481829904e-02
-4.749111449877415486e-02
-4.260216328388159723e-02
-4.734607838424170767e-02
-5.196114301504187183e-02
-4.986023619179436039e-02
-4.550645192495962610e-02
-4.616173958060892923e-02
-5.185486958615113245e-02
-4.749007830140025699e-02
-4.446639612093820221e-02
-4.469721281123003459e-02
-4.571982796616233524e-02
-5.494368455104162857e-02
-5.068074005944437493e-02
-4.375852933885017448e-02
-4.498862678138559890e-02
-4.225426553914466560e-02
-4.038623603111029386e-02
-4.037074764618664435e-02
-3.964835311223749437e-02
-3.574151085961695812e-02
-3.350133968355824970e-02
-3.302667464841865103e-02
-3.010619292094333932e-02
-2.998737368743258427e-02
-2.397074061517548427e-02
1.231206317326330457e-03
2.864726797613571796e-02
4.184237040899781851e-02
4.852833373392290844e-02
5.119249786524067425e-02
4.275718348032737232e-02
2.168142967687965855e-02
-4.725643781451096506e-04
-1.317134947448819586e-02
-2.296083390979408723e-02
-4.019712294431062455e-02
-5.904845591687279960e-02
-6.713895757477796045e-02
-6.484150066365053366e-02
-6.226934538192864521e-02
-5.514300114499540856e-02
-4.849661813281038597e-02
-4.067954154243649117e-02
4.238225053997678703e-03
9.287094116180165393e-02
1.596115907291199287e-01
1.688371467183349128e-01
1.386910318311125323e-01
-1.032128106029016196e-01
-4.256099822383151987e-01
-4.020417465489491970e-01
-1.913581095674923849e-01
-6.485842967602842291e-02
-5.884679073596694142e-03
5.853157379266019956e-03
8.770164841082199111e-03
1.586904630367487121e-02
2.111232948016721067e-02
2.053512325886139300e-02
1.692254659940986908e-02
1.580265432848533200e-02
1.903729383936555650e-02
2.433236712916189703e-02
2.672624379713013990e-02
2.643292481752439194e-02
2.992841363468897245e-02
3.854673258258314861e-02
4.537243581466596926e-02
4.414886048376229222e-02
4.197430034907630170e-02
5.197187465261582373e-02
6.475730111584190873e-02
7.142675846252709293e-02
7.902811280086606549e-02
8.615927834216556558e-02
9.569269323320601928e-02
1.075376583606406228e-01
1.213373350327736216e-01
1.334593402891204872e-01
1.416985048299826688e-01
1.538136779937290255e-01
1.653318131215092412e-01
1.692495209917039556e-01
1.672802982443754582e-01
1.600473404207286288e-01
1.467432658109991683e-01
1.231961391849942383e-01
8.646286424530959247e-02
4.215815945840520329e-02
2.990574537527475839e-03
-2.594222661883967274e-02
-4.708585604102692723e-02
-6.106790845160619402e-02
-6.858911882971047147e-02
-7.093909088292675580e-02
-6.743539380591147270e-02
-6.224907240934626773e-02
-5.953624550599705828e-02
-6.361190199957453273e-02
-6.512006072766747533e-02
-5.441574888208479399e-02
-4.555784758135197898e-02
-4.452067158100930788e-02
-4.538223417994918796e-02
-4.412743748903115437e-02
-3.834997012219804047e-02
-3.612153581392830298e-02
-3.814744008490371374e-02
-3.924453894287768807e-02
-3.990730850460625506e-02
-3.785825637620767598e-02
-3.873541781930559674e-02
-4.153896032206466638e-02
-4.297406227698819664e-02
-4.245972008580940760e-02
-3.789445213984107830e-02
-4.207439149203764245e-02
-4.690714881238614020e-02
-4.410995639039741456e-02
-4.244430696581887735e-02
-4.048914391438120097e-02
-4.282076712982855332e-02
-4.331487799455097099e-02
-3.951861290757394118e-02
-4.104184680111887945e-02
-3.898679090568669958e-02
-3.668664158624498212e-02
-3.802486253887926021e-02
-3.855453144076530225e-02
-3.960293975857633736e-02
-2.892853272635258211e-02
-3.261269648645568047e-03
2.527328665164137178e-02
4.442567006953521136e-02
4.525715665677463445e-02
4.685029536326505012e-02
4.533018677742509106e-02
2.697295868472572578e-02
5.248290597458429158e-03
-8.502125581823250303e-03
-1.545842151667340195e-02
-3.631783668895901401e-02
-5.815549968323663332e-02
-6.426595044275741631e-02
-6.618271276659934421e-02
-6.076351887645853322e-02
-5.852281657317255636e-02
-5.992979739897896091e-02
-5.410384639220151837e-02
-1.514301104029688178e-02
8.171537727945338281e-02
1.824815118747017406e-01
2.128093511741400157e-01
2.037136707698176952e-01
3.172828888515318024e-02
-3.458079457167865245e-01
-4.798420866813322139e-01
-2.702472422542180341e-01
-7.847613561714414376e-02
-6.229220374509401512e-03
5.456934212093061953e-03
1.285395354890158000e-03
6.080705475781821544e-03
1.560496085026202677e-02
1.502273425059148099e-02
1.309902355304734360e-02
1.979779191085745058e-02
2.302895649128467587e-02
2.086227712480045321e-02
2.001434158696055801e-02
2.366699480830327176e-02
2.369534924535003292e-02
2.479018661009871338e-02
3.420931574322027408e-02
3.761169265881681573e-02
3.992674380265866241e-02
4.773104322673593636e-02
5.606764651042166897e-02
6.562400209456625833e-02
7.346598397429542071e-02
8.158572626851881560e-02
9.256026536856458431e-02
1.055237170124702778e-01
1.216290921758264726e-01
1.365259403716963527e-01
1.484285929295741657e-01
1.604642740276087387e-01
1.668253277921127598e-01
1.673263950091893326e-01
1.692230201955212121e-01
1.710921100270872963e-01
1.557183330933250565e-01
1.216447053536851702e-01
8.513086573387022848e-02
4.541401915148862711e-02
6.273358789451323470e-03
-2.649495562100470658e-02
-5.136128632259064075e-02
-6.801382236127673231e-02
-7.705922387691443998e-02
-7.754669802919843258e-02
-8.027277052543355107e-02
-7.939164019914464465e-02
-7.498104368199980108e-02
-7.808115257175184121e-02
-7.753395427601653123e-02
-7.282282417959017040e-02
-6.774938082748924173e-02
-5.964975898444457164e-02
-5.435134736331055649e-02
-5.304937972323490319e-02
-4.914250886653492856e-02
-4.398794230356851270e-02
-4.445333766084835075e-02
-4.480057310383881580e-02
-4.135212303770214454e-02
-4.699514674229468558e-02
-5.098429125059514982e-02
-4.568400524092458559e-02
-4.984917109741602431e-02
-5.272216772065917850e-02
-4.991413172220445643e-02
-4.892486126032608712e-02
-4.853364712622157406e-02
-5.187308322472584943e-02
-5.516138705987055912e-02
-5.543435308507421028e-02
-5.306412064960527863e-02
-5.112040646952589751e-02
-5.250161103765203091e-02
-4.921567069114159143e-02
-4.620064032298037970e-02
-4.909868891549896280e-02
-5.188186766838373543e-02
-5.323834329402932219e-02
-5.093332439264626477e-02
-5.132918813424489773e-02
-5.201489935876119075e-02
-4.821767447153310626e-02
-4.851566134987898848e-02
-4.368806149726875421e-02
-2.947360228070399282e-02
-8.380657093727166343e-03
1.552844112243969080e-02
3.085642490103397695e-02
4.143045099209449744e-02
4.840423501957718394e-02
3.848825482169491302e-02
1.869754561867376097e-02
9.028835022054893748e-04
-8.912294289962112773e-03
-1.942441068365532292e-02
-4.247385724790540829e-02
-6.540620687810520806e-02
-7.502532689043493741e-02
-7.505178654475734568e-02
-7.202130456131852765e-02
-6.957099764964201627e-02
-6.650957473819245347e-02
-6.290273341458654799e-02
-3.068222883467527917e-02
6.031422253522636390e-02
1.703057831558017210e-01
2.077178799601885617e-01
2.085557816880767301e-01
8.383567341171760390e-02
-2.974798940789246116e-01
-5.024172510646266465e-01
-3.118333840702970927e-01
-9.637998137630870987e-02
-7.689839788058610084e-03
5.863566443554795067e-03
-2.027828500669934513e-03
5.705081614824555718e-03
1.331731115148476058e-02
1.360653810612317584e-02
1.206392646623465070e-02
1.719712934049500916e-02
2.306791619127809487e-02
2.234514430147356567e-02
2.370447600056805465e-02
2.412451384804068649e-02
2.317733304920454110e-02
2.941846719597642976e-02
3.605119716360837695e-02
3.710386662488905640e-02
4.182732262282368163e-02
5.207364756897697039e-02
5.498693370350037773e-02
5.880341353356621781e-02
7.053658072375963706e-02
7.538954534138377073e-02
8.347552439372053767e-02
1.051627025639196716e-01
1.179516312537591816e-01
1.234476819807653059e-01
1.353263525199477624e-01
1.491741986093111094e-01
1.581434494117950618e-01
1.636343754085012314e-01
1.723830082098633809e-01
1.737334542541695559e-01
1.607048038359346620e-01
1.327770103339169505e-01
9.293320917250758040e-02
5.354012784042921913e-02
1.333479906299851574e-02
-1.600008677580242594e-02
-3.110899774927554373e-02
-4.868728215292811995e-02
-6.227877940204622903e-02
-6.864551214732567130e-02
-7.129528035966407884e-02
-6.999949952590259206e-02
-7.207670471192900719e-02
-6.893366418543653285e-02
-6.088315735382018867e-02
-5.853350704059803733e-02
-5.268081846067573099e-02
-4.679839563554020337e-02
-4.630167455428550738e-02
-4.649504874469443522e-02
-4.475587470387383526e-02
-4.190545753065080120e-02
-4.146989500956742292e-02
-3.912825477711030786e-02
-3.759873281140027612e-02
-3.842787624793293083e-02
-4.042240033266891741e-02
-4.344902242635528822e-02
-4.471819706824677054e-02
-4.801668084974571732e-02
-4.645579557973331108e-02
-4.065328094212908305e-02
-4.194712366512640817e-02
-4.447605233931085922e-02
-4.517747329451957811e-02
-4.863947507739216358e-02
-4.487516672888598041e-02
-3.626617272745828041e-02
-4.011029162648029056e-02
-4.701218337976645345e-02
-3.968674824841218751e-02
-2.908784840933876376e-02
-3.396334993417630954e-02
-4.251042061044452147e-02
-3.819463680163256991e-02
-3.357856203365144204e-02
-3.347504115923859852e-02
-3.427062974626059882e-02
-3.706349254939458882e-02
-3.774568023504569492e-02
-3.536884514265613982e-02
-3.649576540441907407e-02
-3.894080241234285089e-02
-3.245908798136263457e-02
-1.629489614092624258e-02
1.159148563333563427e-02
3.296970339812423795e-02
3.888522664960545466e-02
5.233604539199524647e-02
5.056824142532893168e-02
2.941838488931827755e-02
1.456678509827099427e-02
-2.620435037900645248e-03
-1.412784276835777654e-02
-2.345991808314809579e-02
-4.557267862085923049e-02
-5.732277796656683189e-02
-5.657324919612517766e-02
-5.562878897690031604e-02
-5.635932405574045623e-02
-5.455540828800876929e-02
-5.048928054418451439e-02
-3.839787969363824688e-02
2.215996114066178316e-02
1.295008046784433542e-01
1.949664915513916463e-01
1.966933610775529473e-01
1.366680412336054029e-01
-1.510217863599349064e-01
-4.560270917300244808e-01
-3.914707629183183379e-01
-1.670124998260896776e-01
-4.044354132520038003e-02
6.855181773801785790e-03
8.940381049058235621e-03
8.020663015971247686e-03
2.092457194194154158e-02
2.544456628084343017e-02
2.019833932386337627e-02
2.340613718243988312e-02
2.774931933566400499e-02
2.569242492002594275e-02
1.995940552800067047e-02
2.058532392506015607e-02
2.517771919984664389e-02
3.034185036135936958e-02
3.502752941394057101e-02
3.332707540094159704e-02
3.506951567674562037e-02
4.527478927023831368e-02
5.233441866505716966e-02
5.674621447808766983e-02
6.239085683305450880e-02
7.236896540101603326e-02
8.529625940346308166e-02
9.547153963456106451e-02
1.052950045249921446e-01
1.194793837886220234e-01
1.371747940929387843e-01
1.503618584523290780e-01
1.526083731605778759e-01
1.563888961102477271e-01
1.654345102773618903e-01
1.735895465613507826e-01
1.640243105610694196e-01
1.381382504918977350e-01
1.139262955166469721e-01
8.080407766041752815e-02
3.842518971637434722e-02
3.108692980892054352e-03
-1.958446863147862010e-02
-3.475290695141648040e-02
-5.071683315673530812e-02
-6.091232988410364563e-02
-5.994735112090830015e-02
-6.056153379513311980e-02
-6.707873056430264935e-02
-6.569590640112751845e-02
-5.488107555164380147e-02
-5.240419924994742934e-02
-6.180372968575725823e-02
-6.137573028903244021e-02
-5.089724577110257830e-02
-4.390827316089188082e-02
-4.067015648057650812e-02
-3.785491428240661538e-02
-3.500434601165634124e-02
-3.679315608879894089e-02
-3.652891193470967496e-02
-3.533146387239444880e-02
-3.709768042141418226e-02
-3.594436247565007542e-02
-4.030018008883236996e-02
-4.167879258987579327e-02
-3.830027917486521216e-02
-4.141644436333836998e-02
-4.547518018071721596e-02
-4.425818179096389221e-02
-4.473521248972666536e-02
-5.097504578519430896e-02
-4.893064017286057055e-02
-4.201310734157975152e-02
-4.216354019415084753e-02
-4.152139395898964136e-02
-4.067886141940674910e-02
-3.911242376957071998e-02
-3.410521197921186770e-02
-3.069377713714072781e-02
-2.901716509881731298e-02
-2.997358768906155033e-02
-3.358212068617189711e-02
-3.548773191640080399e-02
-3.655532501382401794e-02
-2.968474752200147768e-02
-8.037553577496315757e-03
1.932911831938360914e-02
3.919097144245911601e-02
4.613812223749361174e-02
4.737320716125179021e-02
4.718136797643696784e-02
3.765445079961689950e-02
1.282280515208516353e-02
-8.333697602942410562e-03
-1.124470283408465256e-02
-2.809947604809975852e-02
-5.753646251182967936e-02
-7.170389860007363170e-02
-6.670338535040445938e-02
-5.823483628193806827e-02
-6.429814998520393121e-02
-6.315612195629947967e-02
-4.627024394538728491e-02
-7.312909559974567833e-03
7.963306968064920444e-02
1.660985631308735666e-01
1.768797018820275624e-01
1.591259682030453648e-01
6.166836427570706464e-03
-3.230502816997305460e-01
-4.253465691275961635e-01
-2.447806620574010938e-01
-9.095722156301222494e-02
-1.700805772607186586e-02
1.220052860650058107e-02
1.107767392983209989e-02
6.211646596914914553e-03
6.844374465007956043e-03
1.350212507918807994e-02
2.356535572285617039e-02
2.342150580461118195e-02
1.815769441892625680e-02
1.801710306011055154e-02
2.319990505044556769e-02
2.926042064762756148e-02
2.927118071769939378e-02
3.051683031127613507e-02
3.506750448805749654e-02
4.236797983499074327e-02
4.839009987334427082e-02
5.470227257782218910e-02
6.477158230023892516e-02
7.196005419076015319e-02
7.849635034543780976e-02
8.582368229940910698e-02
9.302665295820827795e-02
1.094792031146389760e-01
1.255700133845719935e-01
1.346513421909067698e-01
1.483862573811919328e-01
1.592169050145584852e-01
1.685845395296650673e-01
1.799488437195248536e-01
1.832438841101371452e-01
1.780344286933402131e-01
1.594492462652066234e-01
1.318228579801124511e-01
9.813820776259786494e-02
5.892840974484674782e-02
2.142971423213133400e-02
-1.041318937056365246e-02
-3.040981723911285323e-02
-4.359554656424696056e-02
-5.657160320456446068e-02
-6.088647049118106613e-02
-6.393897301048666326e-02
-6.806336219466034565e-02
-6.389895068739828710e-02
-5.821969293160460940e-02
-5.176584404487102886e-02
-4.414828962102751442e-02
-4.484389182901993981e-02
-4.785210373728911865e-02
-4.142477376893462931e-02
-3.172110279343356987e-02
-3.029936921452024146e-02
-3.182971479148633681e-02
-3.067943525249515815e-02
-2.902369337795994431e-02
-2.997166545914583050e-02
-2.630902734088925304e-02
-2.087943574484003167e-02
-2.856170894934673826e-02
-3.997224121738587876e-02
-4.109173020320585484e-02
-3.655566391323152031e-02
-3.854546073245368465e-02
-4.734298278195735177e-02
-4.792712220838545034e-02
-3.789739889143350915e-02
-3.284461056638803694e-02
-3.457516015377339741e-02
-3.560063644408738986e-02
-3.515623918367021677e-02
-2.796254409424605777e-02
-2.073979049770417055e-02
-2.127885120785507136e-02
-2.432283066924725498e-02
-2.450094841406699406e-02
-2.517362559762968688e-02
-2.599985544094530338e-02
-2.703095370487113708e-02
-3.010824115279596425e-02
-2.942943359144325685e-02
-2.318085633341385177e-02
-1.690930150568202908e-02
-3.779567973562361106e-03
1.813812932121590046e-02
3.806870877635046280e-02
5.260153943627249307e-02
6.282803883884573171e-02
6.587901826855900589e-02
5.337207873541710557e-02
3.541235207068232221e-02
1.933997277245335170e-02
6.530618120122817696e-04
-1.045849702161838306e-02
-2.218601215709806174e-02
-3.870853998278776797e-02
-4.882412777552959382e-02
-4.968251122364864686e-02
-4.823424639220942611e-02
-4.290686345146745018e-02
-3.817465822345358917e-02
-2.108123752306600984e-02
4.102842617643941148e-02
1.455565428447928578e-01
2.214892380358766122e-01
2.365313007224952857e-01
1.960846818450008855e-01
-8.261777985135324021e-02
-4.198973833879938167e-01
-3.823481144545196608e-01
-1.487268061855527568e-01
-1.243830350316135064e-02
2.340982066467757472e-02
1.851006057980348132e-02
2.178600995426517584e-02
2.763971939009828016e-02
3.075382997527422932e-02
3.133769577619904129e-02
3.465647101688199005e-02
3.665310814588661897e-02
3.520790909033352095e-02
3.756361460970462918e-02
3.530305466616241034e-02
3.548697388655698559e-02
4.382569361731847302e-02
4.901881412909007280e-02
5.305524309336037692e-02
5.867769922170645164e-02
6.350871744043717904e-02
6.749043361804409058e-02
7.427711515868883063e-02
8.499653102820715900e-02
9.785226699684333729e-02
1.117258112958008226e-01
1.253994221797178898e-01
1.354070538572705595e-01
1.481219732914549059e-01
1.569615949622616413e-01
1.644229033147889818e-01
1.786743389602685195e-01
1.921329102873732264e-01
1.979721797396990779e-01
1.931079266986143461e-01
1.860341226117746549e-01
1.692419005998321013e-01
1.370618667350323172e-01
1.005907391257307854e-01
5.960688588084614437e-02
2.440326757223884591e-02
-1.565147945131686912e-03
-2.275306374966507353e-02
-3.283526475587277699e-02
-4.181804000452409714e-02
-4.950096220628197319e-02
-4.773442697895860509e-02
-4.509052562055032576e-02
-4.346051856272416941e-02
-4.249007227654830882e-02
-4.065904530905456449e-02
-3.678447866141716649e-02
-3.573664046054917526e-02
-3.253053489910034957e-02
-2.544142067680634292e-02
-2.164683017727846159e-02
-2.000100226752580396e-02
-1.804400834056702971e-02
-1.828917393672130701e-02
-2.230884305122786751e-02
-2.241065678512190254e-02
-2.023675669884340833e-02
-2.100353991008696575e-02
-2.189994833298491289e-02
-2.551618796587828975e-02
-2.433831203527507189e-02
-2.116111631955312766e-02
-2.653004702240543619e-02
-3.277337358175073934e-02
-3.611790004322496667e-02
-3.164741132009183527e-02
-2.595895041586337645e-02
-3.098195355183191654e-02
-3.133168089114251459e-02
-3.019923621516938661e-02
-3.229538101012205398e-02
-2.943630355976707691e-02
-2.595747427154973530e-02
-2.365426003676261713e-02
-2.614287079882129938e-02
-2.868935909700048512e-02
-2.834759938469702534e-02
-2.983249241600507973e-02
-2.800950338357368827e-02
-2.549675616777635767e-02
-2.848579954125540423e-02
-2.866635083339683782e-02
-2.383884974679829211e-02
-1.677403190764840957e-02
-1.685858197826174340e-02
-2.220177907608517423e-02
-1.791936885646642011e-02
-2.500093401092133572e-03
2.288801090852840558e-02
4.415099586471774723e-02
5.803149319884490231e-02
6.780566809300934972e-02
6.471505467427357550e-02
5.310689670854641664e-02
3.835439112171758896e-02
1.839404574689916527e-02
6.216094422839863083e-04
-1.024007628893410828e-02
-2.333993305683999472e-02
-4.113740221123723950e-02
-5.408229962947811581e-02
-5.367775840192469394e-02
-4.736479496704468911e-02
-4.135959873968741984e-02
-3.769118852098928690e-02
-2.792038550156029919e-02
1.957843723056783627e-02
1.239591405475150010e-01
2.179595063162843016e-01
2.332094191259966309e-01
2.173197301422886696e-01
1.974296286023066781e-04
-3.804762844660867227e-01
-4.350760383933819364e-01
-1.999040581091657831e-01
-2.898080136079020028e-02
2.466822206386705407e-02
2.336815502011977894e-02
2.370239391547691865e-02
3.195009070337176404e-02
3.532342217557706693e-02
3.156751445101831782e-02
3.185140388613950935e-02
3.969918703289102013e-02
3.941590028968844361e-02
3.361634509049465230e-02
3.491725694326994200e-02
3.590842526177299293e-02
3.697898982565188397e-02
4.368039233133011456e-02
5.263987096964385659e-02
5.484482395256913556e-02
5.732923974800183814e-02
6.552680223296121487e-02
7.283572983576415416e-02
8.098830616536845106e-02
8.351219105040541546e-02
9.033311889018522112e-02
1.056929235924234378e-01
1.155209967724519227e-01
1.298589174725135464e-01
1.461767385852192069e-01
1.522339540456185691e-01
1.615702608463465140e-01
1.716795817181852313e-01
1.770443328124760018e-01
1.845035484370168288e-01
1.753016124107494300e-01
1.520422885917176170e-01
1.308771171760140517e-01
1.007798067743122666e-01
6.282856407846379443e-02
2.711659366281218841e-02
-1.274374730056340894e-03
-2.226749210964573331e-02
-3.867732626724447453e-02
-4.928236526190515193e-02
-5.601082872014770397e-02
-5.931371303789511468e-02
-5.630299609294264068e-02
-4.735857582828448958e-02
-4.485164804884288203e-02
-5.117844037852742334e-02
-4.878726336030286131e-02
-4.258666743197268845e-02
-3.705016080363852937e-02
-3.376871391605940770e-02
-3.444933727542764945e-02
-3.190970823272750584e-02
-2.773163508738345565e-02
-2.563682676336258640e-02
-2.667501764737942316e-02
-2.887270587760144142e-02
-3.273524061216501191e-02
-3.714436045371000139e-02
-3.780024604665787463e-02
-3.666925086383773791e-02
-3.580771331603121305e-02
-3.532977676802123712e-02
-4.001990682409296146e-02
-4.262388652016767948e-02
-4.031870233784937141e-02
-4.258354489475496552e-02
-4.063319731708009419e-02
-3.706077226091113175e-02
-3.719247823694819821e-02
-3.609131623585688092e-02
-3.768003046535786660e-02
-3.752939880788289106e-02
-3.522207291781933453e-02
-3.161670706298555511e-02
-2.873558475469047135e-02
-3.679026409589186697e-02
-4.054850330392309465e-02
-3.496451515756018175e-02
-3.445463075627493849e-02
-3.980851031936923079e-02
-4.149601534271177283e-02
-3.576244469109746832e-02
-3.408470065335945931e-02
-3.411419871167076928e-02
-3.191950582637633621e-02
-3.669926982889797767e-02
-4.178187385696765371e-02
-4.123025489434715973e-02
-2.820200457775710184e-02
-3.567554001064127318e-04
1.647314380106748230e-02
2.871737856357418905e-02
4.582428461772107553e-02
4.988105672734336610e-02
4.304536906598538382e-02
2.577004681441742023e-02
1.666316973817282389e-03
-1.516773126422796270e-02
-2.697807608071971577e-02
-4.274476625422490850e-02
-6.045220979325474642e-02
-6.948520107429960457e-02
-6.930581759458329105e-02
-6.632873171088490838e-02
-6.194762989966753897e-02
-5.648655207690150837e-02
-4.920684733628856444e-02
-1.545580095698415729e-02
6.882500478898134766e-02
1.580033975783504963e-01
1.745582945883534520e-01
1.521907004617313874e-01
-2.591135632563001598e-02
-3.625567798184823332e-01
-4.352561157966968186e-01
-2.383512468693477493e-01
-8.451192803232590589e-02
-1.584884634591421371e-02
-8.818261329794696091e-04
-1.589309864368666824e-03
5.196205315965071563e-03
9.267572921987359685e-03
4.060355766121996439e-03
3.732319390100968456e-03
7.355226036509157975e-03
4.368580839931157124e-03
6.224971780532586631e-03
9.129843424359159257e-03
8.084610721510674877e-03
1.199015073519820070e-02
1.814092284148446574e-02
2.443901526695185442e-02
2.615055319506000286e-02
2.824246958302703558e-02
3.865991840425702514e-02
4.876485391668599484e-02
5.379850913371040516e-02
6.038579164521828274e-02
6.819594635269828065e-02
7.677778022332799879e-02
8.858065690910905954e-02
9.737093695196115395e-02
1.082329290349236806e-01
1.246801291213952417e-01
1.323972119870752140e-01
1.319819302643892300e-01
1.390012467919114758e-01
1.480783303603681877e-01
1.479750050586446930e-01
1.383112823547632542e-01
1.144045337128147266e-01
8.141746626001462872e-02
4.664903059156273041e-02
1.261180594753093243e-02
-1.656134229327131321e-02
-4.302010796577866031e-02
-6.323970489964672592e-02
-7.257506222950661778e-02
-7.744013302049898573e-02
-8.129037007807177195e-02
-8.023995106885210837e-02
-7.302291581625501571e-02
-6.480329690477551474e-02
-5.751855715827208088e-02
-5.408504665646849535e-02
-5.638495136111805472e-02
-5.483481165443963162e-02
-5.383245547232468065e-02
-5.451656430299750555e-02
-4.830947864710594120e-02
-4.384441370713629271e-02
-4.062246432384244987e-02
-4.335213835806880217e-02
-5.036816182887296489e-02
-4.834561648099436337e-02
-4.729985107350884871e-02
-5.029331214108195142e-02
-5.244606837876469863e-02
-5.357156421241383859e-02
-5.432928992493671339e-02
-5.656975355999863120e-02
-5.770319195157609660e-02
-6.025541575891177337e-02
-6.321958654512770115e-02
-6.348518591955519541e-02
-6.203325779225798975e-02
-5.594657868998055561e-02
-5.437946523877870697e-02
-5.674571913629583575e-02
-5.445408243863752995e-02
-5.416896052390240274e-02
-5.554818798825792575e-02
-5.593155417285786135e-02
-5.564357732341047857e-02
-5.469574482423366496e-02
-5.318083776070914315e-02
-5.067421879932694495e-02
-5.057961375884553745e-02
-5.028257148646150809e-02
-4.980772351841430273e-02
-4.967642432446731093e-02
-4.278393608023398076e-02
-2.571801440377763370e-02
-2.641993988613627192e-03
1.718377641896529084e-02
3.070033952381694131e-02
3.931557413668670953e-02
3.658473611576799900e-02
2.281328460688419879e-02
2.499743847233143901e-03
-1.770221907472801712e-02
-2.442734948203609952e-02
-3.193896986490656065e-02
-5.126892372414972032e-02
-6.526298008404868289e-02
-7.552526690873080650e-02
-7.617863639511475438e-02
-6.844136196321033705e-02
-6.226841611282385447e-02
-5.728488102754385886e-02
-5.051761835540592716e-02
9.247321043934688539e-03
1.242408288972844527e-01
1.822442091079786719e-01
1.863256497006218482e-01
1.550751693276428700e-01
-1.179155037972914322e-01
-4.379660552369465387e-01
-3.891809482876575910e-01
-1.638345699241048337e-01
-3.754641120729881876e-02
1.544775116699784190e-04
-2.388732102259290627e-03
-2.177489542288247627e-03
4.655865954670383028e-03
1.048825812949875751e-02
1.237263698012433695e-02
6.516460724892196577e-03
3.763566284469714585e-03
9.285259233384083460e-03
8.619534976441974028e-03
7.416710038290146197e-03
1.069180553177960513e-02
1.310581747506684228e-02
1.738091320244945434e-02
2.538249924479199504e-02
3.149771381616369575e-02
3.494008519075621905e-02
4.304729165744314995e-02
4.931181322551920349e-02
5.575760075615955602e-02
7.190781987003684594e-02
7.958873524454970760e-02
8.591472210528723619e-02
1.036561229368119091e-01
1.155810055840156975e-01
1.224786610841568368e-01
1.336116044251849933e-01
1.424820718320951585e-01
1.529202295378192800e-01
1.647588488533916207e-01
1.675222027196586749e-01
1.582591067379259253e-01
1.395232357903629372e-01
1.136931606228155645e-01
7.749365886966994021e-02
3.546539119254903810e-02
-4.304204110423976229e-03
-3.268622416237240702e-02
-4.055067487522273639e-02
-5.558759202426715590e-02
-8.261343100037854548e-02
-9.138035250087069017e-02
-8.293184624001476157e-02
-7.326248758981382392e-02
-7.144111999407685987e-02
-6.951820302240906135e-02
-6.596345680274302847e-02
-6.461441921103629193e-02
-5.922179624725806835e-02
-5.850141101456342307e-02
-6.023167040175125830e-02
-5.509760856059073980e-02
-5.476618510932582812e-02
-5.722061201335799929e-02
-5.340021914859325453e-02
-5.367052817592583847e-02
-5.535777275313247259e-02
-5.131980439534840344e-02
-4.861376376297497914e-02
-5.126288753231897366e-02
-5.645093718300465968e-02
-6.005023759905778885e-02
-5.586404260195455829e-02
-5.144574336022132016e-02
-5.829358850364668720e-02
-5.838954272668597789e-02
-5.140363086917021374e-02
-5.176741402937652670e-02
-5.274801994311358044e-02
-5.206827189331064698e-02
-5.008049916626072795e-02
-4.732008795943709600e-02
-4.500969207154534302e-02
-4.194259421958308059e-02
-4.442806879020187727e-02
-4.406567099713817881e-02
-3.621177975482527123e-02
-3.957096075572794081e-02
-4.526766813869444878e-02
-4.172423069123933070e-02
-3.952086009888419738e-02
-3.969191901523212718e-02
-3.755521466880928916e-02
-3.624936104382317503e-02
-3.771711041632620776e-02
-3.956994085639133768e-02
-4.131443407158397196e-02
-4.018360677583988211e-02
-2.536340443165623418e-02
4.296275275750124564e-03
3.080182238630712124e-02
4.926912094738664094e-02
5.959029715061874705e-02
5.778068014063558050e-02
4.601187044188796704e-02
2.657534991477707512e-02
5.215688190057318416e-03
-6.938624880065438934e-03
-1.352097405370558669e-02
-3.420470043333596194e-02
-5.208462079815565776e-02
-5.922565963052942722e-02
-6.173883030516594261e-02
-5.476163577071412741e-02
-4.681528564058082265e-02
-3.803598208090509802e-02
-2.900147110515766125e-02
1.616154849893411752e-02
1.261733707356178236e-01
2.140172901352523083e-01
2.270529465767005262e-01
1.998020996876687383e-01
-4.368372953029294598e-02
-4.098711567370214581e-01
-4.255708586875832089e-01
-1.780308326163938526e-01
-2.392764927071870662e-02
1.049540483536700458e-02
1.139735734542616716e-02
1.654021649747348249e-02
2.033154713483076304e-02
2.342399754379148602e-02
2.287925798573706843e-02
2.180985560756760686e-02
2.285537088399357264e-02
2.272361373748299149e-02
2.240518797214767835e-02
2.638899185709619663e-02
2.980923932050601188e-02
2.876484155437268944e-02
3.072759811041293754e-02
3.732758014281730569e-02
4.379099422292781485e-02
4.998574671040881268e-02
5.446372630993782243e-02
5.974394841474614526e-02
6.697924061384037675e-02
7.494663973429852022e-02
8.453615534509684171e-02
9.387887240699605007e-02
1.054163224830088758e-01
1.194213399455961028e-01
1.310014130078000771e-01
1.444740773491923480e-01
1.556767120098078994e-01
1.621598166306877642e-01
1.638152533951826584e-01
1.632483334943645725e-01
1.625629675683552267e-01
1.511376185684377149e-01
1.272518440478108970e-01
9.542525179808115932e-02
6.255459831859275233e-02
3.297323093287225088e-02
-4.255051678289873199e-03
-3.698205795508962418e-02
-5.314143749906204139e-02
-6.010669717184560779e-02
-6.056333155504689536e-02
-6.167791447639797003e-02
-6.418656544860695812e-02
-6.453171726185559509e-02
-5.924999209108144926e-02
-4.570173631811050297e-02
-4.136041797967771050e-02
-4.264962015195957606e-02
-3.673239604253186047e-02
-3.179949625246054207e-02
-3.201421618443508338e-02
-3.543509625332504076e-02
-3.843694804019112676e-02
-3.750181628510800697e-02
-3.242026983498546427e-02
-3.066525216442611210e-02
-3.685416356094032425e-02
-4.224611921394907932e-02
-3.931906188116706530e-02
-3.383386220122665267e-02
-3.598239353492371784e-02
-4.550574497801606472e-02
-5.151821090986648255e-02
-4.751543928695448754e-02
-4.251633991769840359e-02
-4.128123768987550929e-02
-4.445708325980457509e-02
-4.425647884906791507e-02
-3.952621654200764306e-02
-4.150967369166580490e-02
-4.263337544702533455e-02
-4.443753999042151376e-02
-4.480617700547311066e-02
-3.748659289550776430e-02
-3.179665260115864533e-02
-3.343655853785320459e-02
-4.359910664684765041e-02
-4.036915628388719479e-02
-3.205212911131226361e-02
-4.038966560872310485e-02
-4.599504522462933426e-02
-4.438206930739904688e-02
-4.375380572652320249e-02
-4.413715928297196056e-02
-4.019746626958626418e-02
-1.943200290198849114e-02
8.802654783054206580e-03
1.893124810787006826e-02
2.555717615489486866e-02
4.720408703143912782e-02
5.289896450077058443e-02
3.345071747190531131e-02
1.536786987968248586e-02
-3.513320814211923909e-03
-2.315446824325812294e-02
-3.468396492375798446e-02
-5.055814337800695890e-02
-6.357584161778921661e-02
-6.809918804026730832e-02
-6.504365347469970304e-02
-5.668623167168615473e-02
-5.946784671569386310e-02
-6.517531021265741964e-02
-4.312621598770408071e-02
2.140611439427114737e-02
1.138585433312652440e-01
1.536799598808650802e-01
1.462366661323735439e-01
8.615369284617371837e-02
-1.911846686311857169e-01
-4.315895832092231377e-01
-3.392392157852770485e-01
-1.555200324293273262e-01
-4.919528948209215408e-02
-3.188418938006342893e-03
-8.217250199237266604e-04
-7.395977297207728673e-03
-6.782906339795061884e-03
5.069141022220962853e-05
5.425853031659330118e-03
1.144439112605660433e-02
8.229226710000798681e-03
5.976948597621449012e-04
3.686447164549119370e-03
1.076880122848107579e-02
1.594738162441627916e-02
2.110932957149973602e-02
2.634436270079078615e-02
3.077001882139708891e-02
3.228136745896493381e-02
3.808232151850324265e-02
4.512635899623326785e-02
5.183584886886802301e-02
5.975721863899367131e-02
6.485658183361737994e-02
7.695369624640625850e-02
9.331129855580648502e-02
1.026433994606203576e-01
1.068861450082920356e-01
1.137402975801568711e-01
1.293383557910467718e-01
1.383978832289260719e-01
1.406764856300019850e-01
1.473879733373846534e-01
1.534407777865974265e-01
1.508108304224472507e-01
1.376281123474057122e-01
1.152810432164168425e-01
8.068893290526700512e-02
4.248034189096148300e-02
1.068676172955494372e-02
-1.673566476113581142e-02
-3.258534558306520196e-02
-4.594481068711885052e-02
-5.861504558637097712e-02
-5.915682118941378159e-02
-5.406435408144646959e-02
-4.998718772414162403e-02
-5.109749713713828551e-02
-5.000991490422299762e-02
-4.173280044791532334e-02
-3.702434875228373390e-02
-3.108828120188068811e-02
-2.569901099896898522e-02
-2.745116271704507033e-02
-2.782414068620860104e-02
-2.907505377698045568e-02
-3.023088657059901097e-02
-2.808894728380991954e-02
-2.252065743007735169e-02
-1.978261424297957094e-02
-2.888700895994402232e-02
-3.499339511343143444e-02
-3.348113841271784658e-02
-3.322913546661828560e-02
-3.259653446389844389e-02
-2.766753154464804410e-02
-2.646601270546653645e-02
-3.263856478053279303e-02
-3.597886750282185131e-02
-3.008615814220626239e-02
-2.496370554080311679e-02
-2.428361207423247389e-02
-2.344088772095496639e-02
-2.420478206533690363e-02
-2.793086016128017504e-02
-3.085083758748299529e-02
-2.675936351423716802e-02
-2.634502704695472833e-02
-2.782103938345995703e-02
-2.310660803616361447e-02
-2.646967699900082058e-02
-2.770893365954945134e-02
-2.117903013312448512e-02
-1.257207388591281318e-02
9.773360117351736001e-03
3.350137929019274263e-02
4.944168283666620228e-02
6.423320962086008501e-02
6.783610011881367752e-02
5.557384112014129851e-02
3.575647007481300849e-02
1.530934699621624463e-02
-7.624716065198954224e-04
-1.156466710581844672e-02
-2.614333932468258098e-02
-4.480371710629024729e-02
-5.499642417279618223e-02
-5.313452441480513017e-02
-4.790868826411192466e-02
-4.328115774530427728e-02
-3.900569148130066111e-02
-2.680082373029171391e-02
2.248006022701869513e-02
1.219841127531332836e-01
2.090366607952519606e-01
2.228736980983144766e-01
2.053326695226926901e-01
-2.398277837550913047e-03
-3.636780715038168132e-01
-4.178844366494249285e-01
-1.991501060782644716e-01
-3.685202218856727802e-02
1.775692482527950131e-02
1.985078898770388511e-02
2.102885765685194586e-02
2.466386532604947224e-02
3.193825443373003725e-02
3.698128868758911864e-02
3.083200954490050369e-02
3.137336462855155189e-02
4.048845683019977604e-02
4.506145318127253996e-02
4.389766255049185051e-02
4.172275569428778724e-02
4.564976752505800484e-02
4.701656643435160599e-02
4.723207412380166920e-02
5.417279018115420813e-02
6.229810682680403389e-02
7.311369590903635252e-02
7.818271288063109725e-02
7.838717849960154249e-02
9.033991956067748130e-02
1.054842973160417530e-01
1.178448488242996722e-01
1.279788873827123197e-01
1.370247640410223455e-01
1.480817994662790016e-01
1.594151135668739894e-01
1.707269284365730555e-01
1.767447634204341311e-01
1.799006452982838400e-01
1.840423655677531078e-01
1.824772167895765129e-01
1.718950836604123122e-01
1.451373364727594761e-01
1.116233659777867981e-01
7.696906538358090633e-02
3.603334362781913242e-02
2.060499817013273800e-03
-2.086142508308260618e-02
-3.355588270229748621e-02
-4.123676612708133266e-02
-4.848364475461189316e-02
-4.778364719423983109e-02
-4.547344882509441605e-02
-4.582460872079190811e-02
-4.445873880695386943e-02
-3.931750840664365726e-02
-3.168572046031623013e-02
-2.808348237923105617e-02
-2.634113380865434062e-02
-2.223006117660850101e-02
-1.844017098143668418e-02
-1.753744852762146450e-02
-2.006353800935614662e-02
-1.960719785178534347e-02
-1.805291226488132603e-02
-1.698871280949359325e-02
-1.575366630383714592e-02
-1.710537187031370421e-02
-1.668582169193766687e-02
-1.800387494255489829e-02
-2.302207854969919032e-02
-2.009000507021303783e-02
-1.496680753017558263e-02
-1.869914929863374445e-02
-2.349294876561938694e-02
-2.339889619664593801e-02
-2.014394553121084952e-02
-1.910958357845304878e-02
-2.172573275440252069e-02
-2.323269645684710241e-02
-2.332775199169970226e-02
-2.205465553428385961e-02
-1.913379399164882172e-02
-1.479726805878713025e-02
-1.645476610465276129e-02
-2.277220053800647903e-02
-2.338514675567965675e-02
-2.350349826787518498e-02
-2.291479320013052254e-02
-1.575185128954113487e-02
-1.170819960346263650e-02
-6.821065233131361726e-03
2.053510347022061491e-02
5.852653552492143030e-02
7.358542104539082807e-02
7.465167240479331223e-02
7.174735017818439919e-02
5.170695473071763859e-02
2.873039032398555168e-02
1.503796460074174716e-02
-4.722147230442836144e-04
-1.613952675319210370e-02
-2.968855370535065236e-02
-3.719351250564041644e-02
-4.234574405021773735e-02
-4.572688748234882139e-02
-3.761418530908789554e-02
-3.096413173735573787e-02
-3.560509760193757839e-02
-1.176325053202461127e-02
7.271530062060879707e-02
1.849589010662249233e-01
2.318719658381693527e-01
2.319038937859873029e-01
1.349749550773368389e-01
-2.169180133096360041e-01
-4.635149093301991208e-01
-3.084011832180281742e-01
-7.270808363375722005e-02
2.655477057464182555e-02
3.182679521137709439e-02
2.740522823412823439e-02
3.772134306822666483e-02
3.881128890465371933e-02
3.992453051686096349e-02
4.370192130186552337e-02
4.490416751758768976e-02
4.573775570840814958e-02
4.811816146731238975e-02
5.028625501029814621e-02
5.202645587552828799e-02
5.612751138639743287e-02
5.897110174691621437e-02
6.019822907349819258e-02
6.397584511062374968e-02
6.985957621614551083e-02
8.025904473515949045e-02
9.011846616084807915e-02
9.043551977031913380e-02
9.329243529402124480e-02
1.059432860580659663e-01
1.191181275895163982e-01
1.298655915900608082e-01
1.361647973332828776e-01
1.417658566469538195e-01
1.528853531266003984e-01
1.678415539231164211e-01
1.741219049424432008e-01
1.764338951378533749e-01
1.855680971225522335e-01
1.881084106532990574e-01
1.770074968482040489e-01
1.551497047483673120e-01
1.290977247693774754e-01
1.007841304612118877e-01
6.367622913048490152e-02
2.710946844854812687e-02
-2.287787196870007169e-03
-2.150820159883516658e-02
-3.085481287289579266e-02
-3.767845779050466720e-02
-4.116671383115494409e-02
-4.469649560232986235e-02
-4.474177177835080704e-02
-3.617606059443732869e-02
-2.912836072545329016e-02
-2.839900651517860558e-02
-2.707861639900329895e-02
-2.006844430735410870e-02
-1.371866665809623811e-02
-1.468939702707237199e-02
-2.179361779551223718e-02
-2.239122795919579190e-02
-1.694426071015524282e-02
-1.696940202114408103e-02
-2.014641830826453817e-02
-2.062867098313071745e-02
-2.303124149019572867e-02
-2.647114260789622253e-02
-2.760578812141826349e-02
-2.809933200966806613e-02
-2.849216367718901063e-02
-2.828721288770738584e-02
-2.199859225494734186e-02
-1.850159480424454911e-02
-2.698886572855041174e-02
-3.475930657818750852e-02
-3.083546529357000451e-02
-2.462723023735149952e-02
-2.578206975690844338e-02
-2.371126374903443149e-02
-2.367280174754477634e-02
-3.028398347034209209e-02
-2.696189181657357090e-02
-1.871073097772526714e-02
-2.420088241429901865e-02
-3.030459806559366448e-02
-2.817787666341807495e-02
-2.926596508476498465e-02
-3.006676456321025204e-02
-2.070677606686609912e-02
-1.521202585875893604e-02
-7.186570466274415543e-03
2.003864760413608115e-02
4.514863843198280852e-02
6.133952963910750678e-02
7.448873891334591157e-02
6.665661177736117993e-02
3.944589269713250079e-02
1.477530883768657377e-02
2.533831147200917965e-03
-8.605008647542209885e-03
-3.023355905058610835e-02
-4.835998936431363388e-02
-5.288808640767261871e-02
-5.828324361250070140e-02
-6.083248855801026700e-02
-4.908608012900098766e-02
-3.828642809717045653e-02
-4.171536411784108195e-02
-1.785118010647841758e-02
6.633022184097935037e-02
1.510718890050784247e-01
1.630465648719879312e-01
1.465691805536792625e-01
-1.116415940685276317e-02
-3.371627164097416585e-01
-4.264693264500921122e-01
-2.384072878757321767e-01
-8.150963646395957551e-02
-8.968505794216249938e-03
1.027765262729298662e-02
1.913543747936891429e-03
4.809206466315093208e-04
9.952072118014588728e-03
1.496343377270269170e-02
1.908285485597933581e-02
2.228365409531758712e-02
2.070611173191692911e-02
1.997339153862176184e-02
1.756081814929529722e-02
1.650920837149632420e-02
1.880473900477843546e-02
2.427035523217679555e-02
2.760257367383255056e-02
2.872188789382117136e-02
3.686035597847617251e-02
4.697512196681434549e-02
5.422887106305288030e-02
5.902811213624260811e-02
6.502095187887009520e-02
7.809513834249855180e-02
8.873831974957323288e-02
9.722299082063297349e-02
1.129270130590825927e-01
1.181390594296536922e-01
1.179887243767411276e-01
1.283398318204035105e-01
1.392228115799117594e-01
1.470575059570727594e-01
1.534611196983679260e-01
1.562329210474777963e-01
1.469860591439768327e-01
1.250023697096147857e-01
9.045527217342080872e-02
4.774029981441318959e-02
1.309028992070232489e-02
-1.138788976904303585e-02
-3.745494967760831101e-02
-6.159426470634146722e-02
-7.122966734792432475e-02
-7.021641932646459361e-02
-6.890745873784105691e-02
-6.695534823606964780e-02
-6.467479857631970586e-02
-6.377437985061094883e-02
-5.999249527971999701e-02
-5.560777167431434770e-02
-4.969167159806073958e-02
-4.544362117732107798e-02
-4.456073562720207909e-02
-3.931928789174831546e-02
-3.815833841562728951e-02
-3.807722758390365975e-02
-3.449227018827125124e-02
-3.690247882440919613e-02
-3.607854481977919997e-02
-3.370315151905386303e-02
-3.955316474010397987e-02
-4.397347413570325270e-02
-4.063341098173905985e-02
-3.616427375574324948e-02
-3.649147392475522722e-02
-3.647189910585279388e-02
-3.929324263295102398e-02
-4.679945079411165776e-02
-4.334195648791147604e-02
-3.752611487475739083e-02
-3.753268341182543211e-02
-3.572280955474211456e-02
-3.733564508296702972e-02
-3.763380595348078672e-02
-3.535787818811857164e-02
-3.833736824668700777e-02
-3.617353320906543240e-02
-2.753584969687555839e-02
-2.664391194068069929e-02
-2.995322143864774522e-02
-2.863993060315152619e-02
-2.229841874374310917e-02
-3.998545804860803056e-03
2.331788415782061474e-02
4.277178799265110576e-02
5.459212781062287162e-02
6.593080671339038301e-02
6.047900226072594476e-02
4.040378509420007591e-02
2.452424362128001120e-02
1.141811780921249582e-02
-9.331089518655208501e-04
-1.679496188521289665e-02
-3.833666678479481782e-02
-5.156257050388249330e-02
-5.659457268676876263e-02
-5.656064683130687665e-02
-5.177766030039668982e-02
-4.196707415355235837e-02
-3.529411793529167729e-02
-1.759284447747820265e-02
4.737207274917885902e-02
1.484884160230768024e-01
1.980937190766769995e-01
2.022445713252331856e-01
1.293623019240752459e-01
-1.918221709541904907e-01
-4.439954838024496309e-01
-3.186210070349655976e-01
-1.127911866375418265e-01
-1.533269512496022308e-02
1.026542043243367994e-02
6.931145560057843519e-03
1.238158174559519237e-02
1.797397375839081962e-02
2.003215319957206419e-02
2.361489380804395605e-02
2.348656577503716730e-02
2.193019503676260640e-02
2.372604093292017199e-02
2.621150619529749592e-02
2.914246654191679151e-02
2.858652426533934282e-02
3.324178643175090125e-02
3.974385336976607452e-02
4.544424492424530004e-02
5.307021104738042505e-02
5.706518023270996942e-02
6.428931263571639743e-02
7.339372554522914649e-02
8.334542287960411411e-02
9.046261157532994868e-02
9.582464707332556675e-02
1.103715825590780714e-01
1.202219977651248217e-01
1.278303761982437503e-01
1.391314608871414005e-01
1.520398683054680622e-01
1.656716028695561505e-01
1.667934169432133962e-01
1.650796259798824606e-01
1.706671443041327119e-01
1.647671143307202213e-01
1.431495007226718519e-01
1.104150672544647743e-01
7.213871848351859073e-02
3.707085086734313029e-02
4.008028991394188383e-03
-2.404755380238804419e-02
-4.044815326309086218e-02
-4.622342927190341288e-02
-4.980560398551079487e-02
-5.573288081383989678e-02
-5.888746893258645088e-02
-5.992782250326276344e-02
-5.385877415535072349e-02
-4.862046428004324072e-02
-4.687783035137835230e-02
-4.265321747067923885e-02
-4.229276095128488289e-02
-4.196173427926999655e-02
-4.048103372361167018e-02
-3.876622081409621112e-02
-3.691397954335423615e-02
-3.898347411024750270e-02
-3.881677328926998183e-02
-3.387718096311079230e-02
-3.136246571156332819e-02
-3.487026056373371957e-02
-3.770912650475408134e-02
-3.696435957246837350e-02
-3.587236730715919614e-02
-3.377735210331683779e-02
-3.538596153014224310e-02
-3.874828839480903842e-02
-3.624764866465712138e-02
-3.381933401416061663e-02
-3.101498418379523836e-02
-3.096244328666432344e-02
-3.897906560112410906e-02
-4.371344953496517083e-02
-4.058598738274367401e-02
-3.878441557902018166e-02
-3.753442972224643737e-02
-3.720181856443211671e-02
-3.688679607135862681e-02
-3.635514991195234330e-02
-3.670616070183010254e-02
-3.228731183097387214e-02
-3.362195199141800039e-02
-4.187205674197574251e-02
-4.126856707165615229e-02
-3.231466425208422838e-02
-9.003087164933434861e-03
1.913282817719429846e-02
3.865092691996939445e-02
4.950507042429131560e-02
4.940312930593439983e-02
4.009027790806471425e-02
2.416068990919225876e-02
7.062535800928890911e-03
-6.951283009740266694e-03
-2.027909870104513401e-02
-3.468235300846156388e-02
-5.145884575139756528e-02
-6.388660858208645987e-02
-6.780303610394100566e-02
-6.202148983404431187e-02
-5.512964665048578072e-02
-5.191966457442690613e-02
-4.938899731146630806e-02
-2.217027667231791926e-02
5.937682241683982926e-02
1.654516807540921397e-01
2.087055495416780537e-01
2.110528034228806582e-01
1.032338435686251804e-01
-2.557454858074065807e-01
-4.869521580287234364e-01
-3.223315890331782119e-01
-9.291779808219119419e-02
3.168083031981293405e-03
1.423091291964365124e-02
4.655483244167660239e-03
5.354161859888644306e-03
1.053261043663658580e-02
1.212460991080113737e-02
1.396493381866047850e-02
2.137388032703552848e-02
2.369681234347615836e-02
2.571024199925607545e-02
2.665337546828466797e-02
2.443975087612726763e-02
3.249211787140135477e-02
3.976883208882774079e-02
4.404096093471154827e-02
4.836388982255161728e-02
4.869878978460658731e-02
5.589390116685786364e-02
6.220902824098870076e-02
6.519963409436006774e-02
7.419676920538872955e-02
8.542107220868054573e-02
9.849604642735343418e-02
1.102740788070774303e-01
1.205763622562913001e-01
1.372736523734233993e-01
1.473221879030762460e-01
1.514908352452173368e-01
1.608955228914947799e-01
1.671778693546203953e-01
1.716090371600727249e-01
1.732013125643507845e-01
1.652301736231916451e-01
1.444086478090384207e-01
1.080540272383890693e-01
6.767101656388101183e-02
3.412812069619521743e-02
7.680533585310619221e-03
-1.549790176703541925e-02
-3.600574347521654645e-02
-5.213833192873837397e-02
-5.922968695118568244e-02
-5.570579083294444067e-02
-5.302679099270009300e-02
-5.181722222884672935e-02
-4.849569167689365273e-02
-5.015666597985286856e-02
-4.770084573705275083e-02
-4.143475147761561950e-02
-4.354516661238216901e-02
-4.435925222244972710e-02
-3.746396720422582455e-02
-3.090315539995903277e-02
-2.995716690690230014e-02
-3.101109627660227422e-02
-3.067092736275809500e-02
-2.957998503666490336e-02
-2.653134342585213024e-02
-2.631205452984140825e-02
-2.839418356955510092e-02
-3.189236433154022526e-02
-3.834459623869744538e-02
-3.783130580677632887e-02
-3.634460516921532436e-02
-3.533795124241392166e-02
-3.164981062242080978e-02
-3.366610479650963134e-02
-3.390461804612300567e-02
-2.972801775448016479e-02
-2.873935689156467688e-02
-3.002884968530529844e-02
-2.929320757479986909e-02
-2.981873933060998072e-02
-3.208629185879807028e-02
-2.467148438450387019e-02
-2.058942966121148424e-02
-2.866053551541488179e-02
-3.073032199848359583e-02
-2.797383647052675490e-02
-2.810842381761031322e-02
-3.152554121988059010e-02
-2.611378710819405383e-02
2.225847983677289778e-03
2.585329256378860602e-02
3.711665050836112506e-02
5.267376337934331215e-02
6.696557317671880671e-02
6.078463177088885838e-02
3.614518494364923201e-02
1.742608854951257016e-02
2.584442551852264569e-03
-1.521283732164688089e-02
-3.089597102089707004e-02
-4.859446506452319570e-02
-6.222045468455103534e-02
-6.314002732202078638e-02
-5.868921898733378550e-02
-5.681858636399492180e-02
-5.500443873103824655e-02
-5.357093763603626435e-02
-2.725046257574317843e-02
5.152880449099982857e-02
1.465908402528961207e-01
1.709698139773172532e-01
1.642025907544522045e-01
4.048271972778830219e-02
-2.989783944307215502e-01
-4.485807615994302222e-01
-2.746450663893369448e-01
-9.831033060916168076e-02
-9.130856120004731541e-03
1.562239333603719464e-02
1.085315878866855224e-02
1.138233507380542221e-02
1.633720609315905334e-02
2.317839623236241098e-02
2.581557197223718556e-02
2.361332042593242142e-02
1.592941380978150565e-02
1.390993523043289153e-02
2.230552498138337059e-02
2.772480328757682966e-02
2.830635773503224761e-02
2.624500628042614192e-02
2.767375966862405459e-02
3.192277309866560497e-02
3.679707977669519764e-02
4.439010488797008602e-02
4.788619693119916532e-02
5.357862047016472007e-02
6.267397374528534126e-02
7.458816886668531709e-02
9.192547749128406054e-02
1.031841966118765275e-01
1.086788220938826738e-01
1.200707649638018126e-01
1.350055995383818153e-01
1.446437752744965388e-01
1.497486225042000130e-01
1.534599070552949418e-01
1.605576364125025079e-01
1.658806767558707318e-01
1.558381724301655114e-01
1.289447813770254470e-01
9.336550833490041279e-02
5.533568787265322891e-02
1.593420034865456261e-02
-1.478463869966506472e-02
-3.452563003095833472e-02
-4.911704647532873919e-02
-5.938491634575054218e-02
-6.757947792046689606e-02
-6.967473316119224269e-02
-6.530670646072141150e-02
-6.072238376941751364e-02
-5.906662046452322568e-02
-5.892188137360949984e-02
-5.452710443011812846e-02
-4.726037751136292347e-02
-4.299061230306217701e-02
-3.973196148916397635e-02
-3.782587254805108712e-02
-3.629599385758004726e-02
-3.776627133426720823e-02
-3.742510151938061025e-02
-3.271717979046089714e-02
-3.404497187235522998e-02
-3.654184397081583491e-02
-3.632648576651882621e-02
-3.412385087093105368e-02
-3.282926199538606371e-02
-3.814064298405694942e-02
-3.785566675648302515e-02
-3.401849998332918262e-02
-3.812053687085452391e-02
-3.723970105042399142e-02
-3.197598302273992749e-02
-2.797530756064727300e-02
-2.721695046245972346e-02
-3.668443560652508151e-02
-3.984658629717456602e-02
-3.555946818118561892e-02
-3.457947496951354477e-02
-3.394610411015258622e-02
-3.126442292377739490e-02
-2.871889202465244262e-02
-2.909967826110691075e-02
-2.809192537807397513e-02
-1.556108304184888359e-02
1.321367005973433754e-02
4.249688960297174495e-02
5.371293126406444934e-02
5.977538890308129599e-02
6.028591619238032190e-02
4.167546543553726779e-02
2.239518982417183085e-02
8.555145950042053818e-03
-6.075615455809302116e-03
-1.806527194340784223e-02
-3.534391775528172158e-02
-4.919894884046186606e-02
-5.503837240539762032e-02
-5.687500605113512964e-02
-5.090575268183216567e-02
-4.365375858211205384e-02
-4.376312385636017127e-02
-2.978092020110325797e-02
3.194987064548806405e-02
1.321930395351366139e-01
1.957440356786782076e-01
2.077664243544780909e-01
1.832318508491432851e-01
-7.788103876887879362e-02
-4.172273659708931048e-01
-3.911848097685795000e-01
-1.627734919971304539e-01
-2.923991957908803063e-02
1.155132487928827584e-02
1.553857223145833737e-02
2.097134738484840444e-02
2.516970426251993395e-02
2.638349495041104886e-02
2.770643480745360598e-02
2.591148629745060328e-02
2.881555627108127460e-02
3.427846882062523387e-02
3.150604658609905406e-02
3.254528223691171424e-02
3.410640950459851301e-02
3.412422731704988638e-02
4.369302360794590639e-02
5.249912153642478929e-02
5.297711147238037821e-02
5.566131783536965028e-02
6.448346271333102453e-02
7.127704116476465956e-02
7.799028672375751814e-02
9.026560683138665220e-02
1.001900877566221371e-01
1.113802377947397809e-01
1.257390130159210251e-01
1.346816655437899080e-01
1.447077479613725071e-01
1.561555191341002236e-01
1.633759757576576099e-01
1.715856913648385329e-01
1.823282858323697908e-01
1.828291901187466817e-01
1.680874053771659327e-01
1.490142159515537301e-01
1.186175182409860557e-01
7.564596385213130658e-02
3.777640723650180221e-02
1.056013777446464935e-02
-1.655031890742825890e-02
-4.139706637345245965e-02
-4.994032377530021466e-02
-5.528849115793674912e-02
-6.477314722401095182e-02
-6.363986203885434179e-02
-5.469318531007365952e-02
-5.235047018262614649e-02
-5.262014873723075414e-02
-4.841154336737277936e-02
-4.834104587716728935e-02
-4.849083826753019383e-02
-4.152484465473291197e-02
-3.596517604801149903e-02
-3.498505399591411019e-02
-3.287640323986244090e-02
-3.079957589936511975e-02
-3.190913428461727291e-02
-3.233137880679814308e-02
-2.979489184158492024e-02
-2.849804359426673719e-02
-2.946796032540981505e-02
-3.125584695362339932e-02
-3.534656434838684413e-02
-3.848846984488117628e-02
-3.619333340744396860e-02
-3.120655519585517970e-02
-3.048429884808555312e-02
-3.236867905459894779e-02
-3.739611172179892890e-02
-3.980360596171229198e-02
-3.567016829536607397e-02
-3.625541825933477347e-02
-3.552547380365774637e-02
-3.154914280937584636e-02
-2.836901271528615917e-02
-2.366111425651473699e-02
-2.452748453566426512e-02
-2.745474448383977695e-02
-2.799428457054981001e-02
-2.268059646312009514e-02
-1.337091934280829064e-02
-1.224479458142018092e-02
-1.471351861858047338e-02
1.878444857236810346e-03
3.469582297585427355e-02
5.350048501768089187e-02
5.952765584146230138e-02
6.456687564335013285e-02
5.686072254519070057e-02
4.165806848226966119e-02
2.606431892970284200e-02
9.387300621604081907e-03
-8.724344113093442522e-05
-1.174308584815456601e-02
-3.149006399195552336e-02
-4.581509650820709406e-02
-5.369004077889193843e-02
-5.352011189440929878e-02
-4.821418507373267243e-02
-4.108211751583641658e-02
-3.862091891759658613e-02
-1.460730520917506714e-02
7.040488507579327482e-02
1.841104499558912089e-01
2.358983344922039316e-01
2.365532993248083415e-01
1.299101598013956416e-01
-2.349638310778141281e-01
-4.946323691756924212e-01
-3.345010558989767180e-01
-8.644490889543143819e-02
1.308126036998777213e-02
2.219895358560455834e-02
1.749080306306911511e-02
2.086139077457026605e-02
2.128328561279989664e-02
2.287956623922831820e-02
2.843488412416883548e-02
3.164327249885212634e-02
3.207371156194067235e-02
3.113396194153391847e-02
2.866722980695308315e-02
3.322816402752020587e-02
4.227527202038126874e-02
4.675745531146682787e-02
4.901815566338141306e-02
5.470787736324353445e-02
6.134955290707853198e-02
6.606128826445836766e-02
6.953482130540301898e-02
7.691746763589185631e-02
8.509513593287537647e-02
9.710849395014403695e-02
1.107680991177969337e-01
1.206069127405618863e-01
1.321890861904832237e-01
1.454862156311136079e-01
1.595170295395210436e-01
1.713904563426259797e-01
1.786954248706702775e-01
1.838363396849438391e-01
1.855531478027723502e-01
1.873566232214197713e-01
1.783051629755120771e-01
1.512006911520075714e-01
1.182060585583372819e-01
8.241816463984982799e-02
4.318248277812947178e-02
7.951071001954765002e-03
-1.555720844782592163e-02
-3.015866131218621418e-02
-4.229112630910411563e-02
-4.493967250213842107e-02
-4.298310904535751487e-02
-4.370994926141646975e-02
-4.378717161107559264e-02
-4.438342900821524994e-02
-4.344151062451390155e-02
-4.080889884380649313e-02
-3.601746382388235079e-02
-2.986789376124801554e-02
-2.705151874119617050e-02
-2.395597628975065785e-02
-2.345750897237548760e-02
-2.407346705972279385e-02
-2.298644995516922404e-02
-2.564175749072810165e-02
-2.688426761921512004e-02
-2.376265619662087936e-02
-2.101743156558545308e-02
-2.017915815092981985e-02
-2.448382217427734486e-02
-2.613684304642678591e-02
-2.667269961436088965e-02
-3.148591038424797262e-02
-3.076506828154486686e-02
-2.702843270509031059e-02
-2.768326223554280069e-02
-3.193004262625843276e-02
-2.887117272863319942e-02
-2.125350452679720253e-02
-2.089819824045573496e-02
-2.683763359276013227e-02
-3.384372366078394062e-02
-3.141710546552495958e-02
-2.558036611081784817e-02
-2.612853830438238711e-02
-2.355334171587707137e-02
-2.155838316602804935e-02
-2.147923493990264859e-02
-1.762503680642337270e-02
-2.298855760066819548e-02
-2.766519265087567098e-02
